lr-Adam,step,train/loss,epoch,val/loss,val/CER,val/IER,val/DER,val/SER,train/CER,train/IER,train/DER,train/SER
1e-08,0,,,,,,,,,,,
,49,199.27450561523438,0,,,,,,,,,
,99,146.2328338623047,0,,,,,,,,,
,149,194.7554168701172,0,,,,,,,,,
,199,140.9275665283203,0,,,,,,,,,
,249,194.2710723876953,0,,,,,,,,,
,299,195.02688598632812,0,,,,,,,,,
,349,159.3996124267578,0,,,,,,,,,
,399,237.01593017578125,0,,,,,,,,,
,449,181.6296844482422,0,,,,,,,,,
,499,140.60519409179688,0,,,,,,,,,
,549,129.8076171875,0,,,,,,,,,
,599,259.3424377441406,0,,,,,,,,,
,649,189.298828125,0,,,,,,,,,
,699,197.55630493164062,0,,,,,,,,,
,743,,0,168.9269561767578,2561.005615234375,0.038822565227746964,2509.288330078125,51.678382873535156,,,,
,743,,0,,,,,,2495.4697265625,0.027696995064616203,2440.966064453125,54.47580337524414
0.00011112,744,,,,,,,,,,,
,749,123.32747650146484,1,,,,,,,,,
,799,5.140773773193359,1,,,,,,,,,
,849,4.2373857498168945,1,,,,,,,,,
,899,3.709564685821533,1,,,,,,,,,
,949,3.695270299911499,1,,,,,,,,,
,999,3.7445907592773438,1,,,,,,,,,
,1049,3.7662317752838135,1,,,,,,,,,
,1099,3.519479274749756,1,,,,,,,,,
,1149,3.4949283599853516,1,,,,,,,,,
,1199,3.4743776321411133,1,,,,,,,,,
,1249,4.182543754577637,1,,,,,,,,,
,1299,3.4631245136260986,1,,,,,,,,,
,1349,3.5872802734375,1,,,,,,,,,
,1399,3.4319255352020264,1,,,,,,,,,
,1449,3.4364113807678223,1,,,,,,,,,
,1487,,1,3.4701452255249023,100.0,100.0,0.0,0.0,,,,
,1487,,1,,,,,,113.72721099853516,98.53005981445312,14.0545072555542,1.1426454782485962
0.00022223000000000002,1488,,,,,,,,,,,
,1499,3.4570846557617188,2,,,,,,,,,
,1549,3.3575823307037354,2,,,,,,,,,
,1599,3.368727207183838,2,,,,,,,,,
,1649,3.4386138916015625,2,,,,,,,,,
,1699,3.7369890213012695,2,,,,,,,,,
,1749,3.468748092651367,2,,,,,,,,,
,1799,3.3632709980010986,2,,,,,,,,,
,1849,3.3999013900756836,2,,,,,,,,,
,1899,3.41194486618042,2,,,,,,,,,
,1949,3.3480710983276367,2,,,,,,,,,
,1999,3.6034891605377197,2,,,,,,,,,
,2049,3.313967227935791,2,,,,,,,,,
,2099,3.334225654602051,2,,,,,,,,,
,2149,3.3183515071868896,2,,,,,,,,,
,2199,3.775991916656494,2,,,,,,,,,
,2231,,2,3.356226921081543,100.0,100.0,0.0,0.0,,,,
,2231,,2,,,,,,100.0,100.0,0.0,0.0
0.00033334,2232,,,,,,,,,,,
,2249,3.3121724128723145,3,,,,,,,,,
,2299,3.3851444721221924,3,,,,,,,,,
,2349,3.337977886199951,3,,,,,,,,,
,2399,3.305896520614624,3,,,,,,,,,
,2449,3.2338221073150635,3,,,,,,,,,
,2499,3.2760634422302246,3,,,,,,,,,
,2549,3.2900607585906982,3,,,,,,,,,
,2599,3.2856788635253906,3,,,,,,,,,
,2649,3.2532601356506348,3,,,,,,,,,
,2699,3.378424882888794,3,,,,,,,,,
,2749,3.3310794830322266,3,,,,,,,,,
,2799,3.277315616607666,3,,,,,,,,,
,2849,3.203463554382324,3,,,,,,,,,
,2899,3.2240099906921387,3,,,,,,,,,
,2949,3.448507785797119,3,,,,,,,,,
,2975,,3,3.2322912216186523,100.0,100.0,0.0,0.0,,,,
,2975,,3,,,,,,100.0,100.0,0.0,0.0
0.00044445,2976,,,,,,,,,,,
,2999,3.375161647796631,4,,,,,,,,,
,3049,3.2857460975646973,4,,,,,,,,,
,3099,3.2886786460876465,4,,,,,,,,,
,3149,3.2580432891845703,4,,,,,,,,,
,3199,3.2848002910614014,4,,,,,,,,,
,3249,3.26617169380188,4,,,,,,,,,
,3299,3.227511405944824,4,,,,,,,,,
,3349,3.827955722808838,4,,,,,,,,,
,3399,3.1343002319335938,4,,,,,,,,,
,3449,3.2723400592803955,4,,,,,,,,,
,3499,3.16336989402771,4,,,,,,,,,
,3549,3.214223861694336,4,,,,,,,,,
,3599,3.306122303009033,4,,,,,,,,,
,3649,3.6092090606689453,4,,,,,,,,,
,3699,3.0945820808410645,4,,,,,,,,,
,3719,,4,3.1596176624298096,100.0,100.0,0.0,0.0,,,,
,3719,,4,,,,,,100.0,100.0,0.0,0.0
0.00055556,3720,,,,,,,,,,,
,3749,3.127957820892334,5,,,,,,,,,
,3799,3.0721023082733154,5,,,,,,,,,
,3849,3.2872231006622314,5,,,,,,,,,
,3899,3.1336252689361572,5,,,,,,,,,
,3949,3.219693183898926,5,,,,,,,,,
,3999,3.223443031311035,5,,,,,,,,,
,4049,3.097362518310547,5,,,,,,,,,
,4099,3.231412410736084,5,,,,,,,,,
,4149,3.1081886291503906,5,,,,,,,,,
,4199,3.289175271987915,5,,,,,,,,,
,4249,2.9859559535980225,5,,,,,,,,,
,4299,3.0710701942443848,5,,,,,,,,,
,4349,3.031681776046753,5,,,,,,,,,
,4399,2.978911876678467,5,,,,,,,,,
,4449,3.2170815467834473,5,,,,,,,,,
,4463,,5,3.0304627418518066,99.9722671508789,99.96810913085938,0.0,0.004159560892730951,,,,
,4463,,5,,,,,,100.0,100.0,0.0,0.0
0.00066667,4464,,,,,,,,,,,
,4499,3.260164976119995,6,,,,,,,,,
,4549,3.0316827297210693,6,,,,,,,,,
,4599,3.006765127182007,6,,,,,,,,,
,4649,3.0678935050964355,6,,,,,,,,,
,4699,2.9686648845672607,6,,,,,,,,,
,4749,3.057950019836426,6,,,,,,,,,
,4799,2.981898307800293,6,,,,,,,,,
,4849,3.04398775100708,6,,,,,,,,,
,4899,2.931614875793457,6,,,,,,,,,
,4949,3.0441346168518066,6,,,,,,,,,
,4999,3.0033349990844727,6,,,,,,,,,
,5049,2.9295578002929688,6,,,,,,,,,
,5099,2.9936907291412354,6,,,,,,,,,
,5149,2.8490447998046875,6,,,,,,,,,
,5199,2.8552310466766357,6,,,,,,,,,
,5207,,6,2.8118577003479004,99.98197174072266,99.9805908203125,0.0,0.0013865202199667692,,,,
,5207,,6,,,,,,99.98292541503906,99.98131561279297,0.0,0.0016106638358905911
0.0007777799999999999,5208,,,,,,,,,,,
,5249,2.8988847732543945,7,,,,,,,,,
,5299,2.978215456008911,7,,,,,,,,,
,5349,2.907991647720337,7,,,,,,,,,
,5399,2.830212116241455,7,,,,,,,,,
,5449,3.0395097732543945,7,,,,,,,,,
,5499,2.9035158157348633,7,,,,,,,,,
,5549,2.9542691707611084,7,,,,,,,,,
,5599,2.810121536254883,7,,,,,,,,,
,5649,2.9607415199279785,7,,,,,,,,,
,5699,2.7731781005859375,7,,,,,,,,,
,5749,2.7598283290863037,7,,,,,,,,,
,5799,2.912187099456787,7,,,,,,,,,
,5849,2.919973373413086,7,,,,,,,,,
,5899,2.6600348949432373,7,,,,,,,,,
,5949,2.777912139892578,7,,,,,,,,,
,5951,,7,2.596555471420288,97.89942169189453,97.71085357666016,0.005546080879867077,0.1830206662416458,,,,
,5951,,7,,,,,,99.74986267089844,99.72956085205078,0.0,0.020307382568717003
0.0008888899999999999,5952,,,,,,,,,,,
,5999,2.8147294521331787,8,,,,,,,,,
,6049,2.7672629356384277,8,,,,,,,,,
,6099,2.683800220489502,8,,,,,,,,,
,6149,2.6393864154815674,8,,,,,,,,,
,6199,3.096011161804199,8,,,,,,,,,
,6249,2.732522487640381,8,,,,,,,,,
,6299,2.7178549766540527,8,,,,,,,,,
,6349,2.6604318618774414,8,,,,,,,,,
,6399,3.0312108993530273,8,,,,,,,,,
,6449,2.6691360473632812,8,,,,,,,,,
,6499,2.726388931274414,8,,,,,,,,,
,6549,2.3459653854370117,8,,,,,,,,,
,6599,2.724356174468994,8,,,,,,,,,
,6649,2.413918972015381,8,,,,,,,,,
,6695,,8,2.3655097484588623,94.39430236816406,93.73570251464844,0.029116924852132797,0.6294801831245422,,,,
,6695,,8,,,,,,98.6105728149414,98.47482299804688,0.0025795800611376762,0.13317081332206726
0.001,6696,,,,,,,,,,,
,6699,2.620076894760132,9,,,,,,,,,
,6749,2.5415449142456055,9,,,,,,,,,
,6799,2.5660786628723145,9,,,,,,,,,
,6849,2.5049850940704346,9,,,,,,,,,
,6899,2.50278902053833,9,,,,,,,,,
,6949,2.577882766723633,9,,,,,,,,,
,6999,2.6807782649993896,9,,,,,,,,,
,7049,2.358525276184082,9,,,,,,,,,
,7099,2.613229274749756,9,,,,,,,,,
,7149,2.7002406120300293,9,,,,,,,,,
,7199,2.457700490951538,9,,,,,,,,,
,7249,2.5357768535614014,9,,,,,,,,,
,7299,2.4427616596221924,9,,,,,,,,,
,7349,2.4869954586029053,9,,,,,,,,,
,7399,2.3166823387145996,9,,,,,,,,,
,7439,,9,2.2074310779571533,80.38351440429688,74.565673828125,0.6156150102615356,5.202223777770996,,,,
,7439,,9,,,,,,94.17057037353516,93.29890441894531,0.02670656517148018,0.8449571132659912
0.001,7440,,,,,,,,,,,
,7449,2.3296618461608887,10,,,,,,,,,
,7499,2.3608293533325195,10,,,,,,,,,
,7549,2.3353428840637207,10,,,,,,,,,
,7599,2.402017593383789,10,,,,,,,,,
,7649,2.184098958969116,10,,,,,,,,,
,7699,2.250919818878174,10,,,,,,,,,
,7749,2.2985644340515137,10,,,,,,,,,
,7799,2.46840238571167,10,,,,,,,,,
,7849,2.2789664268493652,10,,,,,,,,,
,7899,2.307382106781006,10,,,,,,,,,
,7949,2.19407057762146,10,,,,,,,,,
,7999,2.032000780105591,10,,,,,,,,,
,8049,2.103902816772461,10,,,,,,,,,
,8099,2.3842573165893555,10,,,,,,,,,
,8149,2.3155205249786377,10,,,,,,,,,
,8183,,10,1.879734754562378,66.1314697265625,52.14425277709961,1.8551640510559082,12.132052421569824,,,,
,8183,,10,,,,,,80.2236099243164,72.1615982055664,0.6138311624526978,7.448184013366699
0.000999874243353782,8184,,,,,,,,,,,
,8199,2.4679441452026367,11,,,,,,,,,
,8249,2.193955898284912,11,,,,,,,,,
,8299,2.021368980407715,11,,,,,,,,,
,8349,1.9880272150039673,11,,,,,,,,,
,8399,2.0506844520568848,11,,,,,,,,,
,8449,2.3190298080444336,11,,,,,,,,,
,8499,2.314710855484009,11,,,,,,,,,
,8549,1.9266955852508545,11,,,,,,,,,
,8599,2.20540452003479,11,,,,,,,,,
,8649,2.1952638626098633,11,,,,,,,,,
,8699,2.134483814239502,11,,,,,,,,,
,8749,2.139396905899048,11,,,,,,,,,
,8799,1.7418183088302612,11,,,,,,,,,
,8849,1.9072104692459106,11,,,,,,,,,
,8899,2.2492189407348633,11,,,,,,,,,
,8927,,11,1.7511860132217407,58.15481948852539,39.4007453918457,2.8964407444000244,15.85763168334961,,,,
,8927,,11,,,,,,69.19049835205078,53.909793853759766,1.4258086681365967,13.854896545410156
0.0009994970367373866,8928,,,,,,,,,,,
,8949,2.151170492172241,12,,,,,,,,,
,8999,2.4864397048950195,12,,,,,,,,,
,9049,2.09130859375,12,,,,,,,,,
,9099,2.0466971397399902,12,,,,,,,,,
,9149,1.9438220262527466,12,,,,,,,,,
,9199,2.0640666484832764,12,,,,,,,,,
,9249,2.1286182403564453,12,,,,,,,,,
,9299,2.1425790786743164,12,,,,,,,,,
,9349,1.7650628089904785,12,,,,,,,,,
,9399,1.7800836563110352,12,,,,,,,,,
,9449,1.8051223754882812,12,,,,,,,,,
,9499,2.090155601501465,12,,,,,,,,,
,9549,2.0901286602020264,12,,,,,,,,,
,9599,1.8595606088638306,12,,,,,,,,,
,9649,1.9874862432479858,12,,,,,,,,,
,9671,,12,1.6771631240844727,54.975528717041016,34.55485916137695,3.1432414054870605,17.277429580688477,,,,
,9671,,12,,,,,,63.99937057495117,45.38045120239258,1.9086169004440308,16.71030044555664
0.0009988685700857047,9672,,,,,,,,,,,
,9699,2.1848859786987305,13,,,,,,,,,
,9749,1.963657021522522,13,,,,,,,,,
,9799,1.67012357711792,13,,,,,,,,,
,9849,1.906426191329956,13,,,,,,,,,
,9899,1.8040156364440918,13,,,,,,,,,
,9949,1.942939043045044,13,,,,,,,,,
,9999,1.7038565874099731,13,,,,,,,,,
,10049,1.9550319910049438,13,,,,,,,,,
,10099,1.7733820676803589,13,,,,,,,,,
,10149,1.8170738220214844,13,,,,,,,,,
,10199,1.7075634002685547,13,,,,,,,,,
,10249,1.8853365182876587,13,,,,,,,,,
,10299,1.6528825759887695,13,,,,,,,,,
,10349,1.6676783561706543,13,,,,,,,,,
,10399,1.9449833631515503,13,,,,,,,,,
,10415,,13,1.5784913301467896,49.65822219848633,24.204484939575195,4.380017280578613,21.073720932006836,,,,
,10415,,13,,,,,,60.241065979003906,39.48474884033203,2.3127012252807617,18.443614959716797
0.0009979891598506218,10416,,,,,,,,,,,
,10449,1.886091709136963,14,,,,,,,,,
,10499,1.899444818496704,14,,,,,,,,,
,10549,1.6974605321884155,14,,,,,,,,,
,10599,1.8656892776489258,14,,,,,,,,,
,10649,2.051583766937256,14,,,,,,,,,
,10699,1.8586724996566772,14,,,,,,,,,
,10749,1.7687804698944092,14,,,,,,,,,
,10799,2.0257134437561035,14,,,,,,,,,
,10849,1.5743112564086914,14,,,,,,,,,
,10899,1.9549167156219482,14,,,,,,,,,
,10949,1.8982999324798584,14,,,,,,,,,
,10999,1.7684571743011475,14,,,,,,,,,
,11049,1.6436054706573486,14,,,,,,,,,
,11099,1.8108330965042114,14,,,,,,,,,
,11149,1.687106966972351,14,,,,,,,,,
,11159,,14,1.4896472692489624,47.55487060546875,22.46856117248535,4.174812316894531,20.9114990234375,,,,
,11159,,14,,,,,,57.51166534423828,35.334381103515625,2.627101182937622,19.550182342529297
0.0009968592488416746,11160,,,,,,,,,,,
,11199,1.741862177848816,15,,,,,,,,,
,11249,1.7664494514465332,15,,,,,,,,,
,11299,1.907415747642517,15,,,,,,,,,
,11349,1.5041694641113281,15,,,,,,,,,
,11399,1.6642463207244873,15,,,,,,,,,
,11449,1.8223376274108887,15,,,,,,,,,
,11499,2.0845842361450195,15,,,,,,,,,
,11549,1.8825397491455078,15,,,,,,,,,
,11599,1.9533822536468506,15,,,,,,,,,
,11649,1.78049898147583,15,,,,,,,,,
,11699,1.6611363887786865,15,,,,,,,,,
,11749,1.8067545890808105,15,,,,,,,,,
,11799,1.5964570045471191,15,,,,,,,,,
,11849,1.7724977731704712,15,,,,,,,,,
,11899,1.7528239488601685,15,,,,,,,,,
,11903,,15,1.5312103033065796,47.21794891357422,21.127796173095703,5.2313408851623535,20.858810424804688,,,,
,11903,,15,,,,,,55.239830017089844,31.793888092041016,2.8836841583251953,20.562257766723633
0.0009954794060030834,11904,,,,,,,,,,,
,11949,1.4009575843811035,16,,,,,,,,,
,11999,1.453109622001648,16,,,,,,,,,
,12049,1.4676803350448608,16,,,,,,,,,
,12099,1.7538301944732666,16,,,,,,,,,
,12149,1.8678302764892578,16,,,,,,,,,
,12199,1.6264536380767822,16,,,,,,,,,
,12249,1.4910483360290527,16,,,,,,,,,
,12299,1.3754487037658691,16,,,,,,,,,
,12349,1.7458932399749756,16,,,,,,,,,
,12399,1.6674981117248535,16,,,,,,,,,
,12449,1.712233066558838,16,,,,,,,,,
,12499,2.1776113510131836,16,,,,,,,,,
,12549,2.2246484756469727,16,,,,,,,,,
,12599,1.5189357995986938,16,,,,,,,,,
,12647,,16,1.4420843124389648,46.16419219970703,22.616918563842773,4.30653190612793,19.240741729736328,,,,
,12647,,16,,,,,,53.49293518066406,29.540878295898438,3.1075148582458496,20.844539642333984
0.0009938503261272714,12648,,,,,,,,,,,
,12649,1.5764448642730713,17,,,,,,,,,
,12699,1.5855690240859985,17,,,,,,,,,
,12749,1.7294564247131348,17,,,,,,,,,
,12799,1.704646348953247,17,,,,,,,,,
,12849,1.8691511154174805,17,,,,,,,,,
,12899,1.763892412185669,17,,,,,,,,,
,12949,1.897456407546997,17,,,,,,,,,
,12999,1.4641742706298828,17,,,,,,,,,
,13049,1.632065773010254,17,,,,,,,,,
,13099,1.6165257692337036,17,,,,,,,,,
,13149,1.8111296892166138,17,,,,,,,,,
,13199,1.5134830474853516,17,,,,,,,,,
,13249,1.549750804901123,17,,,,,,,,,
,13299,1.8759632110595703,17,,,,,,,,,
,13349,1.8585127592086792,17,,,,,,,,,
,13391,,17,1.358611822128296,43.30934524536133,18.827558517456055,4.725261211395264,19.756526947021484,,,,
,13391,,17,,,,,,52.0206413269043,27.71398162841797,3.318690299987793,20.98796844482422
0.0009919728295050155,13392,,,,,,,,,,,
,13399,1.5057787895202637,18,,,,,,,,,
,13449,1.5590543746948242,18,,,,,,,,,
,13499,1.75575852394104,18,,,,,,,,,
,13549,1.5197782516479492,18,,,,,,,,,
,13599,1.906364917755127,18,,,,,,,,,
,13649,1.6375497579574585,18,,,,,,,,,
,13699,2.0764341354370117,18,,,,,,,,,
,13749,1.4016566276550293,18,,,,,,,,,
,13799,1.648067593574524,18,,,,,,,,,
,13849,1.5368245840072632,18,,,,,,,,,
,13899,1.5683937072753906,18,,,,,,,,,
,13949,1.797152042388916,18,,,,,,,,,
,13999,1.5596121549606323,18,,,,,,,,,
,14049,1.7876975536346436,18,,,,,,,,,
,14099,1.650007724761963,18,,,,,,,,,
,14135,,18,1.370747447013855,42.839317321777344,17.25663185119629,5.279869079589844,20.30281639099121,,,,
,14135,,18,,,,,,50.91009521484375,26.322547912597656,3.4822676181793213,21.10527801513672
0.0009898478615124062,14136,,,,,,,,,,,
,14149,1.4376909732818604,19,,,,,,,,,
,14199,1.4530463218688965,19,,,,,,,,,
,14249,1.3850277662277222,19,,,,,,,,,
,14299,1.3476109504699707,19,,,,,,,,,
,14349,1.7580453157424927,19,,,,,,,,,
,14399,1.5592881441116333,19,,,,,,,,,
,14449,1.5085875988006592,19,,,,,,,,,
,14499,1.6906085014343262,19,,,,,,,,,
,14549,1.9160974025726318,19,,,,,,,,,
,14599,1.6188814640045166,19,,,,,,,,,
,14649,1.440396785736084,19,,,,,,,,,
,14699,1.6051422357559204,19,,,,,,,,,
,14749,1.306143045425415,19,,,,,,,,,
,14799,1.5065500736236572,19,,,,,,,,,
,14849,1.5457431077957153,19,,,,,,,,,
,14879,,19,1.3350977897644043,43.6878662109375,21.94861602783203,3.9307849407196045,17.8084659576416,,,,
,14879,,19,,,,,,49.44368362426758,24.79081916809082,3.7035250663757324,20.949338912963867
0.000987476492134821,14880,,,,,,,,,,,
,14899,1.556518316268921,20,,,,,,,,,
,14949,1.5683448314666748,20,,,,,,,,,
,14999,1.3548007011413574,20,,,,,,,,,
,15049,1.5267133712768555,20,,,,,,,,,
,15099,1.6285436153411865,20,,,,,,,,,
,15149,1.4963465929031372,20,,,,,,,,,
,15199,1.4278292655944824,20,,,,,,,,,
,15249,1.504324197769165,20,,,,,,,,,
,15299,1.5349397659301758,20,,,,,,,,,
,15349,1.3387033939361572,20,,,,,,,,,
,15399,1.7723058462142944,20,,,,,,,,,
,15449,1.752242088317871,20,,,,,,,,,
,15499,1.6248939037322998,20,,,,,,,,,
,15549,1.3420441150665283,20,,,,,,,,,
,15599,1.6746693849563599,20,,,,,,,,,
,15623,,20,1.3415290117263794,41.09507369995117,14.681862831115723,5.737420558929443,20.675790786743164,,,,
,15623,,20,,,,,,48.5899658203125,23.634403228759766,3.828889846801758,21.12667465209961
0.0009848599154281552,15624,,,,,,,,,,,
,15649,1.512876033782959,21,,,,,,,,,
,15699,1.42488694190979,21,,,,,,,,,
,15749,1.693889856338501,21,,,,,,,,,
,15799,1.575464129447937,21,,,,,,,,,
,15849,1.4365229606628418,21,,,,,,,,,
,15899,1.4138762950897217,21,,,,,,,,,
,15949,1.3966307640075684,21,,,,,,,,,
,15999,1.5942585468292236,21,,,,,,,,,
,16049,1.4375114440917969,21,,,,,,,,,
,16099,1.3749089241027832,21,,,,,,,,,
,16149,1.5138075351715088,21,,,,,,,,,
,16199,1.240435004234314,21,,,,,,,,,
,16249,1.5765659809112549,21,,,,,,,,,
,16299,1.7318775653839111,21,,,,,,,,,
,16349,1.5021040439605713,21,,,,,,,,,
,16367,,21,1.3520739078521729,42.674320220947266,18.046947479248047,5.784562587738037,18.842809677124023,,,,
,16367,,21,,,,,,48.076290130615234,23.061317443847656,3.9169721603393555,21.09800148010254
0.0009819994489175788,16368,,,,,,,,,,,
,16399,1.6552221775054932,22,,,,,,,,,
,16449,1.848538875579834,22,,,,,,,,,
,16499,1.5962636470794678,22,,,,,,,,,
,16549,1.4592032432556152,22,,,,,,,,,
,16599,1.4201555252075195,22,,,,,,,,,
,16649,1.399656057357788,22,,,,,,,,,
,16699,1.4713430404663086,22,,,,,,,,,
,16749,1.4508082866668701,22,,,,,,,,,
,16799,1.5227313041687012,22,,,,,,,,,
,16849,1.4110300540924072,22,,,,,,,,,
,16899,1.5852802991867065,22,,,,,,,,,
,16949,1.9837336540222168,22,,,,,,,,,
,16999,1.4310868978500366,22,,,,,,,,,
,17049,1.6391632556915283,22,,,,,,,,,
,17099,1.529599905014038,22,,,,,,,,,
,17111,,22,1.2615556716918945,39.868003845214844,15.297477722167969,5.369992733001709,19.200532913208008,,,,
,17111,,22,,,,,,46.90687942504883,21.596345901489258,4.141425609588623,21.169109344482422
0.0009788965329341228,17112,,,,,,,,,,,
,17149,1.4824172258377075,23,,,,,,,,,
,17199,1.5354535579681396,23,,,,,,,,,
,17249,1.4990894794464111,23,,,,,,,,,
,17299,1.3927688598632812,23,,,,,,,,,
,17349,1.6968848705291748,23,,,,,,,,,
,17399,1.6042406558990479,23,,,,,,,,,
,17449,1.455634593963623,23,,,,,,,,,
,17499,1.5675451755523682,23,,,,,,,,,
,17549,1.3038420677185059,23,,,,,,,,,
,17599,1.4154152870178223,23,,,,,,,,,
,17649,1.4601941108703613,23,,,,,,,,,
,17699,1.5737894773483276,23,,,,,,,,,
,17749,1.51350736618042,23,,,,,,,,,
,17799,1.4889696836471558,23,,,,,,,,,
,17849,1.2438151836395264,23,,,,,,,,,
,17855,,23,1.2528005838394165,39.41322326660156,14.611150741577148,5.6570024490356445,19.145071029663086,,,,
,17855,,23,,,,,,46.203250885009766,20.731538772583008,4.239377498626709,21.232336044311523
0.0009755527298894293,17856,,,,,,,,,,,
,17899,1.389040470123291,24,,,,,,,,,
,17949,1.5910651683807373,24,,,,,,,,,
,17999,1.3816587924957275,24,,,,,,,,,
,18049,1.390064001083374,24,,,,,,,,,
,18099,1.4466437101364136,24,,,,,,,,,
,18149,1.5254443883895874,24,,,,,,,,,
,18199,1.6023544073104858,24,,,,,,,,,
,18249,1.5361449718475342,24,,,,,,,,,
,18299,1.4644815921783447,24,,,,,,,,,
,18349,1.310028314590454,24,,,,,,,,,
,18399,1.584225058555603,24,,,,,,,,,
,18449,1.5025078058242798,24,,,,,,,,,
,18499,1.5048898458480835,24,,,,,,,,,
,18549,1.4195080995559692,24,,,,,,,,,
,18599,1.5968749523162842,24,,,,,,,,,
,18599,,24,1.2548933029174805,39.904052734375,15.326595306396484,5.401883125305176,19.175575256347656,,,,
,18599,,24,,,,,,45.927734375,20.477832794189453,4.370913028717041,21.07898712158203
0.0009719697234890296,18600,,,,,,,,,,,
,18649,1.2289564609527588,25,,,,,,,,,
,18699,1.4770660400390625,25,,,,,,,,,
,18749,1.4318124055862427,25,,,,,,,,,
,18799,1.3600627183914185,25,,,,,,,,,
,18849,1.5577292442321777,25,,,,,,,,,
,18899,1.3531728982925415,25,,,,,,,,,
,18949,1.6860491037368774,25,,,,,,,,,
,18999,1.3438282012939453,25,,,,,,,,,
,19049,1.483231544494629,25,,,,,,,,,
,19099,1.3971071243286133,25,,,,,,,,,
,19149,1.4042139053344727,25,,,,,,,,,
,19199,1.373540997505188,25,,,,,,,,,
,19249,1.7382608652114868,25,,,,,,,,,
,19299,1.40398108959198,25,,,,,,,,,
,19343,,25,1.2351404428482056,38.080780029296875,12.010038375854492,6.347489833831787,19.723251342773438,,,,
,19343,,25,,,,,,44.85318374633789,19.350421905517578,4.396461009979248,21.106300354003906
0.0009681493178845487,19344,,,,,,,,,,,
,19349,1.5167183876037598,26,,,,,,,,,
,19399,1.5315463542938232,26,,,,,,,,,
,19449,1.4948408603668213,26,,,,,,,,,
,19499,1.3233067989349365,26,,,,,,,,,
,19549,1.5094984769821167,26,,,,,,,,,
,19599,1.5998518466949463,26,,,,,,,,,
,19649,1.3981634378433228,26,,,,,,,,,
,19699,1.2829420566558838,26,,,,,,,,,
,19749,1.4069633483886719,26,,,,,,,,,
,19799,1.2053579092025757,26,,,,,,,,,
,19849,1.3328827619552612,26,,,,,,,,,
,19899,1.5549101829528809,26,,,,,,,,,
,19949,1.530900001525879,26,,,,,,,,,
,19999,1.344407320022583,26,,,,,,,,,
,20049,1.426637887954712,26,,,,,,,,,
,20087,,26,1.2155333757400513,38.832271575927734,14.690181732177734,5.4254536628723145,18.716636657714844,,,,
,20087,,26,,,,,,44.70654296875,19.159900665283203,4.493907928466797,21.052732467651367
0.0009640934367652599,20088,,,,,,,,,,,
,20099,1.382006287574768,27,,,,,,,,,
,20149,1.4101006984710693,27,,,,,,,,,
,20199,1.4209730625152588,27,,,,,,,,,
,20249,1.3977560997009277,27,,,,,,,,,
,20299,1.350407361984253,27,,,,,,,,,
,20349,1.3342406749725342,27,,,,,,,,,
,20399,1.506340742111206,27,,,,,,,,,
,20449,1.3831067085266113,27,,,,,,,,,
,20499,1.2832585573196411,27,,,,,,,,,
,20549,1.7394860982894897,27,,,,,,,,,
,20599,1.495048999786377,27,,,,,,,,,
,20649,1.299483299255371,27,,,,,,,,,
,20699,1.4958109855651855,27,,,,,,,,,
,20749,1.3822808265686035,27,,,,,,,,,
,20799,1.436307668685913,27,,,,,,,,,
,20831,,27,1.2063159942626953,38.0156135559082,12.532756805419922,5.939852714538574,19.54300308227539,,,,
,20831,,27,,,,,,44.103214263916016,18.340438842773438,4.615756034851074,21.147022247314453
0.0009598041223894496,20832,,,,,,,,,,,
,20849,1.240954875946045,28,,,,,,,,,
,20899,1.4801582098007202,28,,,,,,,,,
,20949,1.3109362125396729,28,,,,,,,,,
,20999,1.5387792587280273,28,,,,,,,,,
,21049,1.3009791374206543,28,,,,,,,,,
,21099,1.3196401596069336,28,,,,,,,,,
,21149,1.2941522598266602,28,,,,,,,,,
,21199,1.4631006717681885,28,,,,,,,,,
,21249,1.4656593799591064,28,,,,,,,,,
,21299,1.2961223125457764,28,,,,,,,,,
,21349,1.353735089302063,28,,,,,,,,,
,21399,1.6685388088226318,28,,,,,,,,,
,21449,1.430889368057251,28,,,,,,,,,
,21499,1.29958975315094,28,,,,,,,,,
,21549,1.4539657831192017,28,,,,,,,,,
,21575,,28,1.1899527311325073,37.19340515136719,11.337575912475586,6.38076639175415,19.47506332397461,,,,
,21575,,28,,,,,,43.796592712402344,17.8369140625,4.724888801574707,21.23478889465332
0.0009552835345560785,21576,,,,,,,,,,,
,21599,1.300733208656311,29,,,,,,,,,
,21649,1.4083526134490967,29,,,,,,,,,
,21699,1.3712208271026611,29,,,,,,,,,
,21749,1.4007883071899414,29,,,,,,,,,
,21799,1.2936137914657593,29,,,,,,,,,
,21849,1.5561989545822144,29,,,,,,,,,
,21899,1.3498008251190186,29,,,,,,,,,
,21949,1.3144276142120361,29,,,,,,,,,
,21999,1.2726998329162598,29,,,,,,,,,
,22049,1.3344097137451172,29,,,,,,,,,
,22099,1.3220064640045166,29,,,,,,,,,
,22149,1.3865206241607666,29,,,,,,,,,
,22199,1.494380235671997,29,,,,,,,,,
,22249,1.4409973621368408,29,,,,,,,,,
,22299,1.394290804862976,29,,,,,,,,,
,22319,,29,1.1945501565933228,36.62493133544922,9.899754524230957,7.107302665710449,19.617874145507812,,,,
,22319,,29,,,,,,43.293006896972656,17.47249412536621,4.810477256774902,21.01003646850586
0.0009505339495172582,22320,,,,,,,,,,,
,22349,1.5655460357666016,30,,,,,,,,,
,22399,1.1195200681686401,30,,,,,,,,,
,22449,1.2168571949005127,30,,,,,,,,,
,22499,1.2083933353424072,30,,,,,,,,,
,22549,1.5279322862625122,30,,,,,,,,,
,22599,1.3323242664337158,30,,,,,,,,,
,22649,1.4040591716766357,30,,,,,,,,,
,22699,1.2237434387207031,30,,,,,,,,,
,22749,1.5280616283416748,30,,,,,,,,,
,22799,1.1798158884048462,30,,,,,,,,,
,22849,1.272117018699646,30,,,,,,,,,
,22899,1.3173418045043945,30,,,,,,,,,
,22949,1.133493185043335,30,,,,,,,,,
,22999,1.440721035003662,30,,,,,,,,,
,23049,1.3443621397018433,30,,,,,,,,,
,23063,,30,1.1845507621765137,37.03118133544922,12.136211395263672,5.831704139709473,19.06326675415039,,,,
,23063,,30,,,,,,43.04528045654297,17.359434127807617,4.806881427764893,20.878965377807617
0.0009455577588320895,23064,,,,,,,,,,,
,23099,1.3150063753128052,31,,,,,,,,,
,23149,1.3052839040756226,31,,,,,,,,,
,23199,1.4705803394317627,31,,,,,,,,,
,23249,1.5587314367294312,31,,,,,,,,,
,23299,1.4202932119369507,31,,,,,,,,,
,23349,1.634028434753418,31,,,,,,,,,
,23399,1.2272875308990479,31,,,,,,,,,
,23449,1.3623945713043213,31,,,,,,,,,
,23499,1.3050940036773682,31,,,,,,,,,
,23549,1.3753044605255127,31,,,,,,,,,
,23599,1.3643248081207275,31,,,,,,,,,
,23649,1.2919471263885498,31,,,,,,,,,
,23699,1.3283934593200684,31,,,,,,,,,
,23749,1.169302225112915,31,,,,,,,,,
,23799,1.5628232955932617,31,,,,,,,,,
,23807,,31,1.1910542249679565,37.911624908447266,13.94284725189209,5.526669502258301,18.442106246948242,,,,
,23807,,31,,,,,,42.836708068847656,17.116191864013672,4.849517822265625,20.871000289916992
0.0009403574681624404,23808,,,,,,,,,,,
,23849,1.3039445877075195,32,,,,,,,,,
,23899,1.2574462890625,32,,,,,,,,,
,23949,1.2970890998840332,32,,,,,,,,,
,23999,1.2796757221221924,32,,,,,,,,,
,24049,1.4938268661499023,32,,,,,,,,,
,24099,1.4012097120285034,32,,,,,,,,,
,24149,1.3683383464813232,32,,,,,,,,,
,24199,1.3945395946502686,32,,,,,,,,,
,24249,1.3910796642303467,32,,,,,,,,,
,24299,1.1751821041107178,32,,,,,,,,,
,24349,1.584592342376709,32,,,,,,,,,
,24399,1.235662817955017,32,,,,,,,,,
,24449,1.1102341413497925,32,,,,,,,,,
,24499,1.276979923248291,32,,,,,,,,,
,24549,1.2862322330474854,32,,,,,,,,,
,24551,,32,1.1651723384857178,37.348697662353516,12.38162612915039,6.0757317543029785,18.891338348388672,,,,
,24551,,32,,,,,,42.41501235961914,16.75334358215332,4.852499485015869,20.809167861938477
0.0009349356960112697,24552,,,,,,,,,,,
,24599,1.446965217590332,33,,,,,,,,,
,24649,1.2315959930419922,33,,,,,,,,,
,24699,1.3524575233459473,33,,,,,,,,,
,24749,1.2649312019348145,33,,,,,,,,,
,24799,1.3099671602249146,33,,,,,,,,,
,24849,1.4923765659332275,33,,,,,,,,,
,24899,1.3340919017791748,33,,,,,,,,,
,24949,1.4907753467559814,33,,,,,,,,,
,24999,1.2034424543380737,33,,,,,,,,,
,25049,1.2879536151885986,33,,,,,,,,,
,25099,1.268052577972412,33,,,,,,,,,
,25149,1.3256525993347168,33,,,,,,,,,
,25199,1.4955878257751465,33,,,,,,,,,
,25249,1.4198235273361206,33,,,,,,,,,
,25295,,33,1.1524258852005005,35.982975006103516,11.067204475402832,6.231021881103516,18.68474769592285,,,,
,25295,,33,,,,,,41.908206939697266,16.23711585998535,4.965622901916504,20.705467224121094
0.0009292951724041319,25296,,,,,,,,,,,
,25299,1.559279203414917,34,,,,,,,,,
,25349,1.1846779584884644,34,,,,,,,,,
,25399,1.1557481288909912,34,,,,,,,,,
,25449,1.5956223011016846,34,,,,,,,,,
,25499,1.30810546875,34,,,,,,,,,
,25549,1.3341288566589355,34,,,,,,,,,
,25599,1.216158390045166,34,,,,,,,,,
,25649,1.270290732383728,34,,,,,,,,,
,25699,1.4380072355270386,34,,,,,,,,,
,25749,1.2783805131912231,34,,,,,,,,,
,25799,1.3494147062301636,34,,,,,,,,,
,25849,1.4265317916870117,34,,,,,,,,,
,25899,1.500518798828125,34,,,,,,,,,
,25949,1.6061854362487793,34,,,,,,,,,
,25999,1.4152586460113525,34,,,,,,,,,
,26039,,34,1.1242122650146484,35.288326263427734,10.457136154174805,6.573492527008057,18.25769805908203,,,,
,26039,,34,,,,,,41.55278778076172,15.977483749389648,5.012133598327637,20.563169479370117
0.0009234387375145277,26040,,,,,,,,,,,
,26049,1.267575740814209,35,,,,,,,,,
,26099,1.1842249631881714,35,,,,,,,,,
,26149,1.0748577117919922,35,,,,,,,,,
,26199,1.2244117259979248,35,,,,,,,,,
,26249,1.2275539636611938,35,,,,,,,,,
,26299,1.4882053136825562,35,,,,,,,,,
,26349,1.3413126468658447,35,,,,,,,,,
,26399,1.2282078266143799,35,,,,,,,,,
,26449,1.3781393766403198,35,,,,,,,,,
,26499,1.07735276222229,35,,,,,,,,,
,26549,1.4135462045669556,35,,,,,,,,,
,26599,1.2723486423492432,35,,,,,,,,,
,26649,1.1894659996032715,35,,,,,,,,,
,26699,1.236989140510559,35,,,,,,,,,
,26749,1.363855004310608,35,,,,,,,,,
,26783,,35,1.1823890209197998,37.297393798828125,13.012492179870605,5.7526726722717285,18.532230377197266,,,,
,26783,,35,,,,,,41.56700134277344,15.975377082824707,5.038033485412598,20.553590774536133
0.0009173693402337905,26784,,,,,,,,,,,
,26799,1.1422107219696045,36,,,,,,,,,
,26849,1.313852310180664,36,,,,,,,,,
,26899,1.115694522857666,36,,,,,,,,,
,26949,1.3347896337509155,36,,,,,,,,,
,26999,1.3888788223266602,36,,,,,,,,,
,27049,1.3554227352142334,36,,,,,,,,,
,27099,1.1211215257644653,36,,,,,,,,,
,27149,1.4893957376480103,36,,,,,,,,,
,27199,1.272423505783081,36,,,,,,,,,
,27249,1.5355278253555298,36,,,,,,,,,
,27299,1.310119867324829,36,,,,,,,,,
,27349,1.240783452987671,36,,,,,,,,,
,27399,1.2056546211242676,36,,,,,,,,,
,27449,1.1524741649627686,36,,,,,,,,,
,27499,1.2117791175842285,36,,,,,,,,,
,27527,,36,1.1324236392974854,35.682098388671875,11.817312240600586,6.052160739898682,17.812625885009766,,,,
,27527,,36,,,,,,41.042354583740234,15.55640697479248,5.12288761138916,20.363059997558594
0.0009110900366862309,27528,,,,,,,,,,,
,27549,1.3325872421264648,37,,,,,,,,,
,27599,1.1798956394195557,37,,,,,,,,,
,27649,1.4145910739898682,37,,,,,,,,,
,27699,1.1367907524108887,37,,,,,,,,,
,27749,1.1327770948410034,37,,,,,,,,,
,27799,1.1552693843841553,37,,,,,,,,,
,27849,1.3006784915924072,37,,,,,,,,,
,27899,1.2499747276306152,37,,,,,,,,,
,27949,1.39849853515625,37,,,,,,,,,
,27999,1.486618995666504,37,,,,,,,,,
,28049,1.3290164470672607,37,,,,,,,,,
,28099,1.246405839920044,37,,,,,,,,,
,28149,1.2110059261322021,37,,,,,,,,,
,28199,1.5100576877593994,37,,,,,,,,,
,28249,1.0366829633712769,37,,,,,,,,,
,28271,,37,1.1222177743911743,34.854347229003906,9.554511070251465,6.752353668212891,18.547481536865234,,,,
,28271,,37,,,,,,40.63205337524414,15.219273567199707,5.137152671813965,20.275625228881836
0.000904603988690286,28272,,,,,,,,,,,
,28299,1.1315312385559082,38,,,,,,,,,
,28349,1.1681571006774902,38,,,,,,,,,
,28399,1.3627933263778687,38,,,,,,,,,
,28449,1.510061502456665,38,,,,,,,,,
,28499,1.2120747566223145,38,,,,,,,,,
,28549,1.206807017326355,38,,,,,,,,,
,28599,1.3267123699188232,38,,,,,,,,,
,28649,1.2773926258087158,38,,,,,,,,,
,28699,1.4548929929733276,38,,,,,,,,,
,28749,1.2935385704040527,38,,,,,,,,,
,28799,1.2188585996627808,38,,,,,,,,,
,28849,1.2724831104278564,38,,,,,,,,,
,28899,1.31911039352417,38,,,,,,,,,
,28949,1.423704981803894,38,,,,,,,,,
,28999,1.205294132232666,38,,,,,,,,,
,29015,,38,1.140061378479004,36.26582336425781,11.960124015808105,6.0355224609375,18.270177841186523,,,,
,29015,,38,,,,,,40.47588348388672,15.016571044921875,5.287171363830566,20.172142028808594
0.0008979144621664494,29016,,,,,,,,,,,
,29049,1.2829018831253052,39,,,,,,,,,
,29099,1.4294004440307617,39,,,,,,,,,
,29149,1.476477026939392,39,,,,,,,,,
,29199,1.2190325260162354,39,,,,,,,,,
,29249,1.1125757694244385,39,,,,,,,,,
,29299,1.2407448291778564,39,,,,,,,,,
,29349,1.2999202013015747,39,,,,,,,,,
,29399,1.2534916400909424,39,,,,,,,,,
,29449,1.0484893321990967,39,,,,,,,,,
,29499,1.2852575778961182,39,,,,,,,,,
,29549,1.108112096786499,39,,,,,,,,,
,29599,1.3938624858856201,39,,,,,,,,,
,29649,1.484243631362915,39,,,,,,,,,
,29699,1.2138004302978516,39,,,,,,,,,
,29749,1.2741771936416626,39,,,,,,,,,
,29759,,39,1.1137200593948364,35.56840515136719,12.277636528015137,5.709690570831299,17.581077575683594,,,,
,29759,,39,,,,,,40.57937240600586,15.352179527282715,5.149308204650879,20.0778865814209
0.0008910248254927808,29760,,,,,,,,,,,
,29799,1.5222809314727783,40,,,,,,,,,
,29849,1.3495209217071533,40,,,,,,,,,
,29899,1.2300159931182861,40,,,,,,,,,
,29949,1.415553331375122,40,,,,,,,,,
,29999,1.2084386348724365,40,,,,,,,,,
,30049,1.2899374961853027,40,,,,,,,,,
,30099,1.299574613571167,40,,,,,,,,,
,30149,1.123426079750061,40,,,,,,,,,
,30199,1.2938140630722046,40,,,,,,,,,
,30249,1.5370516777038574,40,,,,,,,,,
,30299,1.2663419246673584,40,,,,,,,,,
,30349,1.3755518198013306,40,,,,,,,,,
,30399,1.355078935623169,40,,,,,,,,,
,30449,1.2414665222167969,40,,,,,,,,,
,30499,1.2029227018356323,40,,,,,,,,,
,30503,,40,1.1080209016799927,34.05016326904297,9.2758207321167,6.652523994445801,18.1218204498291,,,,
,30503,,40,,,,,,40.1211051940918,14.842281341552734,5.326931953430176,19.951892852783203
0.0008839385478088264,30504,,,,,,,,,,,
,30549,1.3244270086288452,41,,,,,,,,,
,30599,1.112476110458374,41,,,,,,,,,
,30649,1.3141255378723145,41,,,,,,,,,
,30699,1.1325254440307617,41,,,,,,,,,
,30749,1.231095314025879,41,,,,,,,,,
,30799,1.0998172760009766,41,,,,,,,,,
,30849,1.1416420936584473,41,,,,,,,,,
,30899,1.5830953121185303,41,,,,,,,,,
,30949,1.2231347560882568,41,,,,,,,,,
,30999,1.298039436340332,41,,,,,,,,,
,31049,1.2204523086547852,41,,,,,,,,,
,31099,1.1757874488830566,41,,,,,,,,,
,31149,1.4394410848617554,41,,,,,,,,,
,31199,1.1614429950714111,41,,,,,,,,,
,31247,,41,1.1044740676879883,34.28864669799805,9.813790321350098,6.669162273406982,17.805692672729492,,,,
,31247,,41,,,,,,39.895294189453125,14.647787094116211,5.324828147888184,19.922679901123047
0.0008766591972688036,31248,,,,,,,,,,,
,31249,1.2295114994049072,42,,,,,,,,,
,31299,1.2152950763702393,42,,,,,,,,,
,31349,1.2607834339141846,42,,,,,,,,,
,31399,1.2419407367706299,42,,,,,,,,,
,31449,1.111910104751587,42,,,,,,,,,
,31499,1.2620112895965576,42,,,,,,,,,
,31549,1.3011318445205688,42,,,,,,,,,
,31599,1.3530499935150146,42,,,,,,,,,
,31649,1.351266860961914,42,,,,,,,,,
,31699,1.5274479389190674,42,,,,,,,,,
,31749,1.1181890964508057,42,,,,,,,,,
,31799,1.136188268661499,42,,,,,,,,,
,31849,1.2147257328033447,42,,,,,,,,,
,31899,1.076433777809143,42,,,,,,,,,
,31949,1.3852046728134155,42,,,,,,,,,
,31991,,42,1.081878900527954,33.905967712402344,10.487639427185059,6.093756675720215,17.324569702148438,,,,
,31991,,42,,,,,,39.68148422241211,14.428576469421387,5.318997859954834,19.93391227722168
0.0008691904392449266,31992,,,,,,,,,,,
,31999,1.1036534309387207,43,,,,,,,,,
,32049,1.1101025342941284,43,,,,,,,,,
,32099,1.4405524730682373,43,,,,,,,,,
,32149,1.2275375127792358,43,,,,,,,,,
,32199,1.2678577899932861,43,,,,,,,,,
,32249,1.3370428085327148,43,,,,,,,,,
,32299,1.3424265384674072,43,,,,,,,,,
,32349,1.2393033504486084,43,,,,,,,,,
,32399,1.2601404190063477,43,,,,,,,,,
,32449,1.198872685432434,43,,,,,,,,,
,32499,1.198762059211731,43,,,,,,,,,
,32549,1.2796287536621094,43,,,,,,,,,
,32599,1.3096781969070435,43,,,,,,,,,
,32649,1.1989154815673828,43,,,,,,,,,
,32699,1.2300965785980225,43,,,,,,,,,
,32735,,43,1.0792430639266968,33.60093307495117,8.84738540649414,7.065707206726074,17.68783950805664,,,,
,32735,,43,,,,,,39.26943588256836,14.093849182128906,5.396751403808594,19.778837203979492
0.000861536034481782,32736,,,,,,,,,,,
,32749,1.2387676239013672,44,,,,,,,,,
,32799,1.1945422887802124,44,,,,,,,,,
,32849,1.4041686058044434,44,,,,,,,,,
,32899,1.1087428331375122,44,,,,,,,,,
,32949,1.1547390222549438,44,,,,,,,,,
,32999,1.4662353992462158,44,,,,,,,,,
,33049,1.55476713180542,44,,,,,,,,,
,33099,1.1665802001953125,44,,,,,,,,,
,33149,1.2653101682662964,44,,,,,,,,,
,33199,1.1564472913742065,44,,,,,,,,,
,33249,1.1622976064682007,44,,,,,,,,,
,33299,1.2326328754425049,44,,,,,,,,,
,33349,1.3510117530822754,44,,,,,,,,,
,33399,1.320242166519165,44,,,,,,,,,
,33449,1.237989902496338,44,,,,,,,,,
,33479,,44,1.0832343101501465,33.510807037353516,8.787765502929688,6.982515811920166,17.74052619934082,,,,
,33479,,44,,,,,,39.19739532470703,14.005935668945312,5.4746928215026855,19.716764450073242
0.0008536998372026804,33480,,,,,,,,,,,
,33499,1.298601508140564,45,,,,,,,,,
,33549,1.15940260887146,45,,,,,,,,,
,33599,1.2981150150299072,45,,,,,,,,,
,33649,1.012734293937683,45,,,,,,,,,
,33699,1.2664461135864258,45,,,,,,,,,
,33749,1.3996920585632324,45,,,,,,,,,
,33799,1.3846365213394165,45,,,,,,,,,
,33849,1.3569774627685547,45,,,,,,,,,
,33899,1.256980061531067,45,,,,,,,,,
,33949,1.2536096572875977,45,,,,,,,,,
,33999,1.1887552738189697,45,,,,,,,,,
,34049,1.3166487216949463,45,,,,,,,,,
,34099,1.3657855987548828,45,,,,,,,,,
,34149,1.1576584577560425,45,,,,,,,,,
,34199,1.1868844032287598,45,,,,,,,,,
,34223,,45,1.0788384675979614,33.48030471801758,8.353784561157227,7.308348178863525,17.818172454833984,,,,
,34223,,45,,,,,,38.81320571899414,13.563730239868164,5.425685405731201,19.823789596557617
0.0008456857931689388,34224,,,,,,,,,,,
,34249,1.0481761693954468,46,,,,,,,,,
,34299,1.2352780103683472,46,,,,,,,,,
,34349,1.303551435470581,46,,,,,,,,,
,34399,1.0937408208847046,46,,,,,,,,,
,34449,1.09810471534729,46,,,,,,,,,
,34499,1.2675504684448242,46,,,,,,,,,
,34549,1.159874439239502,46,,,,,,,,,
,34599,1.2186198234558105,46,,,,,,,,,
,34649,1.151881456375122,46,,,,,,,,,
,34699,1.1487224102020264,46,,,,,,,,,
,34749,1.1565830707550049,46,,,,,,,,,
,34799,1.2997186183929443,46,,,,,,,,,
,34849,1.184816837310791,46,,,,,,,,,
,34899,1.2232091426849365,46,,,,,,,,,
,34949,1.139162302017212,46,,,,,,,,,
,34967,,46,1.0678040981292725,32.96174621582031,8.30387020111084,7.148898601531982,17.50897789001465,,,,
,34967,,46,,,,,,38.82664108276367,13.83825969696045,5.447915554046631,19.540468215942383
0.0008374979376930711,34968,,,,,,,,,,,
,34999,1.1385458707809448,47,,,,,,,,,
,35049,1.152390480041504,47,,,,,,,,,
,35099,1.3317235708236694,47,,,,,,,,,
,35149,1.2391775846481323,47,,,,,,,,,
,35199,1.2032965421676636,47,,,,,,,,,
,35249,0.9982813596725464,47,,,,,,,,,
,35299,1.1698119640350342,47,,,,,,,,,
,35349,1.2815773487091064,47,,,,,,,,,
,35399,1.2888126373291016,47,,,,,,,,,
,35449,1.1899049282073975,47,,,,,,,,,
,35499,1.293508529663086,47,,,,,,,,,
,35549,1.1191232204437256,47,,,,,,,,,
,35599,1.0647435188293457,47,,,,,,,,,
,35649,1.1032865047454834,47,,,,,,,,,
,35699,1.2740507125854492,47,,,,,,,,,
,35711,,47,1.0893882513046265,34.230411529541016,9.827655792236328,6.709371566772461,17.693384170532227,,,,
,35711,,47,,,,,,38.91208267211914,13.759199142456055,5.545974254608154,19.60690689086914
0.0008291403936068863,35712,,,,,,,,,,,
,35749,1.3033299446105957,48,,,,,,,,,
,35799,1.337376594543457,48,,,,,,,,,
,35849,1.2688956260681152,48,,,,,,,,,
,35899,1.1228046417236328,48,,,,,,,,,
,35949,1.219871997833252,48,,,,,,,,,
,35999,1.0284221172332764,48,,,,,,,,,
,36049,1.3511306047439575,48,,,,,,,,,
,36099,1.0543255805969238,48,,,,,,,,,
,36149,1.1119763851165771,48,,,,,,,,,
,36199,1.4077351093292236,48,,,,,,,,,
,36249,1.433319091796875,48,,,,,,,,,
,36299,1.372086524963379,48,,,,,,,,,
,36349,1.2360291481018066,48,,,,,,,,,
,36399,1.1023095846176147,48,,,,,,,,,
,36449,1.2658028602600098,48,,,,,,,,,
,36455,,48,1.0990025997161865,34.323307037353516,9.634929656982422,6.627566814422607,18.06081199645996,,,,
,36455,,48,,,,,,38.50197982788086,13.489191055297852,5.488470077514648,19.524320602416992
0.0008206173691855193,36456,,,,,,,,,,,
,36499,1.1450536251068115,49,,,,,,,,,
,36549,1.358748435974121,49,,,,,,,,,
,36599,1.1016993522644043,49,,,,,,,,,
,36649,1.331174373626709,49,,,,,,,,,
,36699,1.1477510929107666,49,,,,,,,,,
,36749,1.2688053846359253,49,,,,,,,,,
,36799,1.2736172676086426,49,,,,,,,,,
,36849,1.1295087337493896,49,,,,,,,,,
,36899,1.2232611179351807,49,,,,,,,,,
,36949,1.1240994930267334,49,,,,,,,,,
,36999,1.2278828620910645,49,,,,,,,,,
,37049,1.2160853147506714,49,,,,,,,,,
,37099,1.084072470664978,49,,,,,,,,,
,37149,1.1334221363067627,49,,,,,,,,,
,37199,1.1545069217681885,49,,,,,,,,,
,37199,,49,1.084867000579834,33.21409225463867,6.993607997894287,7.966945171356201,18.2535400390625,,,,
,37199,,49,,,,,,38.344825744628906,13.358782768249512,5.556935787200928,19.429107666015625
0.0008119331560284373,37200,,,,,,,,,,,
,37249,1.2498201131820679,50,,,,,,,,,
,37299,1.1846978664398193,50,,,,,,,,,
,37349,1.2631924152374268,50,,,,,,,,,
,37399,1.1428227424621582,50,,,,,,,,,
,37449,1.273442268371582,50,,,,,,,,,
,37499,1.189838171005249,50,,,,,,,,,
,37549,1.2030994892120361,50,,,,,,,,,
,37599,1.1155720949172974,50,,,,,,,,,
,37649,1.264299988746643,50,,,,,,,,,
,37699,1.2609272003173828,50,,,,,,,,,
,37749,1.4208455085754395,50,,,,,,,,,
,37799,1.1232800483703613,50,,,,,,,,,
,37849,1.3209940195083618,50,,,,,,,,,
,37899,1.3578327894210815,50,,,,,,,,,
,37943,,50,1.0531636476516724,32.759315490722656,8.463319778442383,6.993607997894287,17.302385330200195,,,,
,37943,,50,,,,,,37.86127853393555,13.026150703430176,5.619041919708252,19.21608543395996
0.0008030921268984896,37944,,,,,,,,,,,
,37949,1.251296043395996,51,,,,,,,,,
,37999,1.4578022956848145,51,,,,,,,,,
,38049,1.246838092803955,51,,,,,,,,,
,38099,1.037335991859436,51,,,,,,,,,
,38149,1.1455494165420532,51,,,,,,,,,
,38199,1.2134966850280762,51,,,,,,,,,
,38249,1.0184860229492188,51,,,,,,,,,
,38299,1.1516618728637695,51,,,,,,,,,
,38349,1.1924808025360107,51,,,,,,,,,
,38399,1.152784824371338,51,,,,,,,,,
,38449,1.2212615013122559,51,,,,,,,,,
,38499,1.0439609289169312,51,,,,,,,,,
,38549,1.4119776487350464,51,,,,,,,,,
,38599,1.4341953992843628,51,,,,,,,,,
,38649,1.0613749027252197,51,,,,,,,,,
,38687,,51,1.0756827592849731,33.20716094970703,8.517394065856934,7.014405727386475,17.67535972595215,,,,
,38687,,51,,,,,,37.85029602050781,13.020195007324219,5.532344818115234,19.297754287719727
0.0007940987335200902,38688,,,,,,,,,,,
,38699,1.3202929496765137,52,,,,,,,,,
,38749,1.1318004131317139,52,,,,,,,,,
,38799,1.2025882005691528,52,,,,,,,,,
,38849,1.171754002571106,52,,,,,,,,,
,38899,1.2841262817382812,52,,,,,,,,,
,38949,1.157850742340088,52,,,,,,,,,
,38999,1.1033859252929688,52,,,,,,,,,
,39049,1.1172196865081787,52,,,,,,,,,
,39099,1.2179361581802368,52,,,,,,,,,
,39149,1.3393181562423706,52,,,,,,,,,
,39199,1.1229842901229858,52,,,,,,,,,
,39249,1.3815200328826904,52,,,,,,,,,
,39299,1.2417776584625244,52,,,,,,,,,
,39349,1.0945408344268799,52,,,,,,,,,
,39399,1.160606861114502,52,,,,,,,,,
,39431,,52,1.0623161792755127,32.59847640991211,8.251181602478027,7.03520393371582,17.312091827392578,,,,
,39431,,52,,,,,,37.686946868896484,12.920980453491211,5.6883769035339355,19.07758903503418
0.0007849575043376416,39432,,,,,,,,,,,
,39449,1.054089069366455,53,,,,,,,,,
,39499,1.2509684562683105,53,,,,,,,,,
,39549,1.0466910600662231,53,,,,,,,,,
,39599,1.367205262184143,53,,,,,,,,,
,39649,0.9847715497016907,53,,,,,,,,,
,39699,1.3532991409301758,53,,,,,,,,,
,39749,1.1958266496658325,53,,,,,,,,,
,39799,1.1410150527954102,53,,,,,,,,,
,39849,1.1436160802841187,53,,,,,,,,,
,39899,1.0141819715499878,53,,,,,,,,,
,39949,1.2150859832763672,53,,,,,,,,,
,39999,1.113433599472046,53,,,,,,,,,
,40049,1.1395710706710815,53,,,,,,,,,
,40099,1.2504751682281494,53,,,,,,,,,
,40149,1.3318454027175903,53,,,,,,,,,
,40175,,53,1.0479753017425537,32.300376892089844,8.140260696411133,7.049068927764893,17.111045837402344,,,,
,40175,,53,,,,,,37.3348388671875,12.576539039611816,5.721881866455078,19.03641700744629
0.000775673042235325,40176,,,,,,,,,,,
,40199,1.1424198150634766,54,,,,,,,,,
,40249,1.043140172958374,54,,,,,,,,,
,40299,1.0886175632476807,54,,,,,,,,,
,40349,1.1142339706420898,54,,,,,,,,,
,40399,0.7653664350509644,54,,,,,,,,,
,40449,1.2374571561813354,54,,,,,,,,,
,40499,1.074730634689331,54,,,,,,,,,
,40549,1.284851312637329,54,,,,,,,,,
,40599,1.1389167308807373,54,,,,,,,,,
,40649,1.1573669910430908,54,,,,,,,,,
,40699,1.2362689971923828,54,,,,,,,,,
,40749,1.2052407264709473,54,,,,,,,,,
,40799,1.1978747844696045,54,,,,,,,,,
,40849,0.9308773875236511,54,,,,,,,,,
,40899,1.2259626388549805,54,,,,,,,,,
,40919,,54,1.0441147089004517,31.99811363220215,7.86434268951416,7.1142354011535645,17.0195369720459,,,,
,40919,,54,,,,,,37.05179977416992,12.42284107208252,5.703477382659912,18.92548179626465
0.0007662500222194103,40920,,,,,,,,,,,
,40949,1.1600098609924316,55,,,,,,,,,
,40999,1.2486369609832764,55,,,,,,,,,
,41049,1.1322357654571533,55,,,,,,,,,
,41099,1.0325729846954346,55,,,,,,,,,
,41149,1.1664611101150513,55,,,,,,,,,
,41199,1.2800829410552979,55,,,,,,,,,
,41249,1.2350924015045166,55,,,,,,,,,
,41299,1.1513679027557373,55,,,,,,,,,
,41349,1.2222473621368408,55,,,,,,,,,
,41399,1.08695650100708,55,,,,,,,,,
,41449,1.2459893226623535,55,,,,,,,,,
,41499,1.2317945957183838,55,,,,,,,,,
,41549,1.0230777263641357,55,,,,,,,,,
,41599,1.1576224565505981,55,,,,,,,,,
,41649,1.285581350326538,55,,,,,,,,,
,41663,,55,1.0431771278381348,32.113197326660156,8.043204307556152,6.88961935043335,17.18037223815918,,,,
,41663,,55,,,,,,36.838478088378906,12.364057540893555,5.694279193878174,18.780141830444336
0.00075669318906425,41664,,,,,,,,,,,
,41699,1.1669609546661377,56,,,,,,,,,
,41749,1.0830280780792236,56,,,,,,,,,
,41799,1.1789214611053467,56,,,,,,,,,
,41849,1.1848450899124146,56,,,,,,,,,
,41899,1.2384363412857056,56,,,,,,,,,
,41949,1.1276659965515137,56,,,,,,,,,
,41999,1.1850883960723877,56,,,,,,,,,
,42049,1.0733022689819336,56,,,,,,,,,
,42099,1.0159285068511963,56,,,,,,,,,
,42149,1.1661975383758545,56,,,,,,,,,
,42199,1.1967756748199463,56,,,,,,,,,
,42249,1.3342065811157227,56,,,,,,,,,
,42299,1.3386495113372803,56,,,,,,,,,
,42349,1.1977245807647705,56,,,,,,,,,
,42399,1.0864444971084595,56,,,,,,,,,
,42407,,56,1.0313875675201416,32.131221771240234,9.317416191101074,6.419588565826416,16.394214630126953,,,,
,42407,,56,,,,,,36.903289794921875,12.387361526489258,5.699939250946045,18.815988540649414
0.0007470073549231411,42408,,,,,,,,,,,
,42449,1.0239375829696655,57,,,,,,,,,
,42499,1.4185316562652588,57,,,,,,,,,
,42549,1.1276521682739258,57,,,,,,,,,
,42599,1.1429046392440796,57,,,,,,,,,
,42649,1.2991688251495361,57,,,,,,,,,
,42699,1.2582976818084717,57,,,,,,,,,
,42749,1.472080945968628,57,,,,,,,,,
,42799,1.07174813747406,57,,,,,,,,,
,42849,1.0737570524215698,57,,,,,,,,,
,42899,1.1013153791427612,57,,,,,,,,,
,42949,1.0062204599380493,57,,,,,,,,,
,42999,1.2523165941238403,57,,,,,,,,,
,43049,1.2474405765533447,57,,,,,,,,,
,43099,1.2803694009780884,57,,,,,,,,,
,43149,0.9814379215240479,57,,,,,,,,,
,43151,,57,1.0451810359954834,32.37663269042969,8.765581130981445,6.694119930267334,16.916933059692383,,,,
,43151,,57,,,,,,36.586647033691406,12.128580093383789,5.747934341430664,18.710132598876953
0.0007371973969052627,43152,,,,,,,,,,,
,43199,1.0753400325775146,58,,,,,,,,,
,43249,1.1985734701156616,58,,,,,,,,,
,43299,1.262791395187378,58,,,,,,,,,
,43349,0.9846190214157104,58,,,,,,,,,
,43399,1.29884934425354,58,,,,,,,,,
,43449,1.032629132270813,58,,,,,,,,,
,43499,1.0430368185043335,58,,,,,,,,,
,43549,1.2336487770080566,58,,,,,,,,,
,43599,1.1392672061920166,58,,,,,,,,,
,43649,1.0205150842666626,58,,,,,,,,,
,43699,1.4215540885925293,58,,,,,,,,,
,43749,1.2524104118347168,58,,,,,,,,,
,43799,1.112488031387329,58,,,,,,,,,
,43849,1.0785495042800903,58,,,,,,,,,
,43895,,58,1.0358844995498657,32.01613998413086,7.9503068923950195,7.0726399421691895,16.993192672729492,,,,
,43895,,58,,,,,,36.505279541015625,12.195687294006348,5.640790939331055,18.668800354003906
0.0007272682546199035,43896,,,,,,,,,,,
,43899,1.1837553977966309,59,,,,,,,,,
,43949,1.0233182907104492,59,,,,,,,,,
,43999,1.0025296211242676,59,,,,,,,,,
,44049,1.155160665512085,59,,,,,,,,,
,44099,1.036839246749878,59,,,,,,,,,
,44149,1.1554932594299316,59,,,,,,,,,
,44199,1.1800233125686646,59,,,,,,,,,
,44249,1.1954567432403564,59,,,,,,,,,
,44299,1.1214752197265625,59,,,,,,,,,
,44349,1.133086085319519,59,,,,,,,,,
,44399,1.094931960105896,59,,,,,,,,,
,44449,1.0196516513824463,59,,,,,,,,,
,44499,1.101335048675537,59,,,,,,,,,
,44549,1.3576579093933105,59,,,,,,,,,
,44599,1.1959435939788818,59,,,,,,,,,
,44639,,59,1.0298124551773071,31.711105346679688,7.623088359832764,7.178015232086182,16.910001754760742,,,,
,44639,,59,,,,,,36.22500228881836,11.86573600769043,5.813448905944824,18.545818328857422
0.0007172249276892202,44640,,,,,,,,,,,
,44649,1.1557245254516602,60,,,,,,,,,
,44699,1.1466612815856934,60,,,,,,,,,
,44749,1.0463913679122925,60,,,,,,,,,
,44799,0.9733884930610657,60,,,,,,,,,
,44849,1.2966408729553223,60,,,,,,,,,
,44899,1.0339231491088867,60,,,,,,,,,
,44949,1.361799955368042,60,,,,,,,,,
,44999,1.0072907209396362,60,,,,,,,,,
,45049,1.1711382865905762,60,,,,,,,,,
,45099,1.1363052129745483,60,,,,,,,,,
,45149,1.2704733610153198,60,,,,,,,,,
,45199,1.0945916175842285,60,,,,,,,,,
,45249,1.0541362762451172,60,,,,,,,,,
,45299,1.0324721336364746,60,,,,,,,,,
,45349,1.1970200538635254,60,,,,,,,,,
,45383,,60,1.0339692831039429,31.85946273803711,8.517394065856934,6.8175201416015625,16.524547576904297,,,,
,45383,,60,,,,,,36.24678039550781,11.901082038879395,5.784389495849609,18.561307907104492
0.0007070724732307769,45384,,,,,,,,,,,
,45399,1.0899646282196045,61,,,,,,,,,
,45449,0.9218568801879883,61,,,,,,,,,
,45499,0.9952581524848938,61,,,,,,,,,
,45549,0.988396406173706,61,,,,,,,,,
,45599,1.0366864204406738,61,,,,,,,,,
,45649,1.2660257816314697,61,,,,,,,,,
,45699,1.1416682004928589,61,,,,,,,,,
,45749,1.3272836208343506,61,,,,,,,,,
,45799,1.2092626094818115,61,,,,,,,,,
,45849,1.210758090019226,61,,,,,,,,,
,45899,1.053131103515625,61,,,,,,,,,
,45949,1.0461595058441162,61,,,,,,,,,
,45999,1.2039296627044678,61,,,,,,,,,
,46049,1.1231342554092407,61,,,,,,,,,
,46099,1.2401704788208008,61,,,,,,,,,
,46127,,61,1.0122792720794678,31.7984561920166,9.504596710205078,6.31837272644043,15.975486755371094,,,,
,46127,,61,,,,,,35.96702575683594,11.759374618530273,5.86598014831543,18.341670989990234
0.0006968160033111347,46128,,,,,,,,,,,
,46149,1.2333465814590454,62,,,,,,,,,
,46199,1.128547191619873,62,,,,,,,,,
,46249,1.0957585573196411,62,,,,,,,,,
,46299,1.3131396770477295,62,,,,,,,,,
,46349,1.0234063863754272,62,,,,,,,,,
,46399,1.1476187705993652,62,,,,,,,,,
,46449,1.1381618976593018,62,,,,,,,,,
,46499,1.0789860486984253,62,,,,,,,,,
,46549,1.328279733657837,62,,,,,,,,,
,46599,1.281003475189209,62,,,,,,,,,
,46649,1.0685296058654785,62,,,,,,,,,
,46699,1.1808085441589355,62,,,,,,,,,
,46749,1.0763336420059204,62,,,,,,,,,
,46799,1.1735137701034546,62,,,,,,,,,
,46849,0.9656816124916077,62,,,,,,,,,
,46871,,62,1.0231562852859497,31.429641723632812,6.867434978485107,7.628634452819824,16.933570861816406,,,,
,46871,,62,,,,,,35.67985153198242,11.451284408569336,5.826018810272217,18.402549743652344
0.0006864606823717715,46872,,,,,,,,,,,
,46899,1.1791260242462158,63,,,,,,,,,
,46949,1.3092013597488403,63,,,,,,,,,
,46999,1.2056959867477417,63,,,,,,,,,
,47049,1.062501311302185,63,,,,,,,,,
,47099,1.0445547103881836,63,,,,,,,,,
,47149,1.1376146078109741,63,,,,,,,,,
,47199,1.2764948606491089,63,,,,,,,,,
,47249,1.0983161926269531,63,,,,,,,,,
,47299,1.0942206382751465,63,,,,,,,,,
,47349,1.068534255027771,63,,,,,,,,,
,47399,1.0310587882995605,63,,,,,,,,,
,47449,1.2600398063659668,63,,,,,,,,,
,47499,1.1975572109222412,63,,,,,,,,,
,47549,1.154004693031311,63,,,,,,,,,
,47599,0.9422366619110107,63,,,,,,,,,
,47615,,63,1.0281331539154053,31.406070709228516,7.046296119689941,7.659137725830078,16.70063591003418,,,,
,47615,,63,,,,,,35.891334533691406,11.530996322631836,5.958460807800293,18.401878356933594
0.0006760117246286306,47616,,,,,,,,,,,
,47649,1.171225666999817,64,,,,,,,,,
,47699,0.9710344672203064,64,,,,,,,,,
,47749,1.2549899816513062,64,,,,,,,,,
,47799,1.126929521560669,64,,,,,,,,,
,47849,1.1488666534423828,64,,,,,,,,,
,47899,1.1597583293914795,64,,,,,,,,,
,47949,1.435798168182373,64,,,,,,,,,
,47999,1.0288876295089722,64,,,,,,,,,
,48049,1.1410764455795288,64,,,,,,,,,
,48099,1.1892937421798706,64,,,,,,,,,
,48149,1.3076997995376587,64,,,,,,,,,
,48199,1.1552072763442993,64,,,,,,,,,
,48249,1.164486050605774,64,,,,,,,,,
,48299,1.0486586093902588,64,,,,,,,,,
,48349,1.0740680694580078,64,,,,,,,,,
,48359,,64,1.0191127061843872,31.489261627197266,7.817201137542725,7.146125316619873,16.52593421936035,,,,
,48359,,64,,,,,,35.68043899536133,11.648221015930176,5.855238437652588,18.176979064941406
0.0006654743914466059,48360,,,,,,,,,,,
,48399,1.0790766477584839,65,,,,,,,,,
,48449,1.0202558040618896,65,,,,,,,,,
,48499,1.2818207740783691,65,,,,,,,,,
,48549,0.9477695226669312,65,,,,,,,,,
,48599,0.9599180221557617,65,,,,,,,,,
,48649,1.1626250743865967,65,,,,,,,,,
,48699,1.0314871072769165,65,,,,,,,,,
,48749,0.9489840269088745,65,,,,,,,,,
,48799,1.2051138877868652,65,,,,,,,,,
,48849,1.0680726766586304,65,,,,,,,,,
,48899,1.1666815280914307,65,,,,,,,,,
,48949,1.1193759441375732,65,,,,,,,,,
,48999,1.3125381469726562,65,,,,,,,,,
,49049,1.3300729990005493,65,,,,,,,,,
,49099,1.0916961431503296,65,,,,,,,,,
,49103,,65,1.0026311874389648,31.046960830688477,8.683775901794434,6.4140424728393555,15.949142456054688,,,,
,49103,,65,,,,,,35.39297866821289,11.4613618850708,5.876556396484375,18.0550594329834
0.0006548539886902862,49104,,,,,,,,,,,
,49149,1.1690586805343628,66,,,,,,,,,
,49199,1.222428560256958,66,,,,,,,,,
,49249,1.1017353534698486,66,,,,,,,,,
,49299,1.044213056564331,66,,,,,,,,,
,49349,1.1022441387176514,66,,,,,,,,,
,49399,0.9840188026428223,66,,,,,,,,,
,49449,0.9924328923225403,66,,,,,,,,,
,49499,1.307499885559082,66,,,,,,,,,
,49549,1.1676056385040283,66,,,,,,,,,
,49599,0.9575790166854858,66,,,,,,,,,
,49649,1.112441062927246,66,,,,,,,,,
,49699,0.9535892605781555,66,,,,,,,,,
,49749,1.0406497716903687,66,,,,,,,,,
,49799,1.1209468841552734,66,,,,,,,,,
,49847,,66,1.0109611749649048,30.970703125,7.014405727386475,7.412337303161621,16.543960571289062,,,,
,49847,,66,,,,,,34.969112396240234,11.190064430236816,5.891645908355713,17.88740348815918
0.0006441558640522925,49848,,,,,,,,,,,
,49849,1.2107654809951782,67,,,,,,,,,
,49899,1.3072175979614258,67,,,,,,,,,
,49949,1.040515422821045,67,,,,,,,,,
,49999,1.0252346992492676,67,,,,,,,,,
,50049,0.996427059173584,67,,,,,,,,,
,50099,1.169567346572876,67,,,,,,,,,
,50149,1.2076776027679443,67,,,,,,,,,
,50199,1.152336597442627,67,,,,,,,,,
,50249,1.2203269004821777,67,,,,,,,,,
,50299,0.9847069978713989,67,,,,,,,,,
,50349,1.174566388130188,67,,,,,,,,,
,50399,1.1034791469573975,67,,,,,,,,,
,50449,1.0727150440216064,67,,,,,,,,,
,50499,1.29073166847229,67,,,,,,,,,
,50549,1.1828453540802002,67,,,,,,,,,
,50591,,67,1.0037379264831543,30.732221603393555,6.8022685050964355,7.473344326019287,16.45660972595215,,,,
,50591,,67,,,,,,34.7609977722168,10.987062454223633,5.9505615234375,17.82337188720703
0.000633385404360554,50592,,,,,,,,,,,
,50599,0.9684611558914185,68,,,,,,,,,
,50649,1.044419765472412,68,,,,,,,,,
,50699,0.9153441190719604,68,,,,,,,,,
,50749,1.0495057106018066,68,,,,,,,,,
,50799,1.0478532314300537,68,,,,,,,,,
,50849,0.9991418123245239,68,,,,,,,,,
,50899,1.0187500715255737,68,,,,,,,,,
,50949,1.1968512535095215,68,,,,,,,,,
,50999,0.9727491736412048,68,,,,,,,,,
,51049,1.057783842086792,68,,,,,,,,,
,51099,1.1682837009429932,68,,,,,,,,,
,51149,1.5318909883499146,68,,,,,,,,,
,51199,1.1155420541763306,68,,,,,,,,,
,51249,1.4280472993850708,68,,,,,,,,,
,51299,1.096997618675232,68,,,,,,,,,
,51335,,68,0.9966995120048523,30.868101119995117,8.019633293151855,6.778697490692139,16.06976890563965,,,,
,51335,,68,,,,,,34.65872573852539,11.025174140930176,5.929211139678955,17.7043399810791
0.0006225480328658779,51336,,,,,,,,,,,
,51349,1.321603775024414,69,,,,,,,,,
,51399,1.0860035419464111,69,,,,,,,,,
,51449,1.2121455669403076,69,,,,,,,,,
,51499,0.8626401424407959,69,,,,,,,,,
,51549,1.1178052425384521,69,,,,,,,,,
,51599,1.087180495262146,69,,,,,,,,,
,51649,1.075216293334961,69,,,,,,,,,
,51699,1.0350055694580078,69,,,,,,,,,
,51749,1.0812230110168457,69,,,,,,,,,
,51799,1.1428592205047607,69,,,,,,,,,
,51849,1.1924855709075928,69,,,,,,,,,
,51899,1.082733154296875,69,,,,,,,,,
,51949,1.2748441696166992,69,,,,,,,,,
,51999,1.2099181413650513,69,,,,,,,,,
,52049,1.030670404434204,69,,,,,,,,,
,52079,,69,1.0014272928237915,31.017845153808594,7.851864337921143,6.849410057067871,16.316570281982422,,,,
,52079,,69,,,,,,34.74031448364258,11.063497543334961,5.934715270996094,17.742101669311523
0.0006116492065111788,52080,,,,,,,,,,,
,52099,1.375520944595337,70,,,,,,,,,
,52149,0.9414018988609314,70,,,,,,,,,
,52199,0.9392040371894836,70,,,,,,,,,
,52249,1.1474342346191406,70,,,,,,,,,
,52299,1.055255651473999,70,,,,,,,,,
,52349,1.0951077938079834,70,,,,,,,,,
,52399,1.1834429502487183,70,,,,,,,,,
,52449,0.9961659908294678,70,,,,,,,,,
,52499,1.2086812257766724,70,,,,,,,,,
,52549,1.0061827898025513,70,,,,,,,,,
,52599,0.9070194363594055,70,,,,,,,,,
,52649,0.9174163937568665,70,,,,,,,,,
,52699,1.072502613067627,70,,,,,,,,,
,52749,0.9433465600013733,70,,,,,,,,,
,52799,1.0453495979309082,70,,,,,,,,,
,52823,,70,1.0158283710479736,31.554428100585938,7.305575370788574,7.381834030151367,16.867019653320312,,,,
,52823,,70,,,,,,34.70208740234375,10.84172248840332,6.039154052734375,17.821210861206055
0.0006006944131837446,52824,,,,,,,,,,,
,52849,0.9664949774742126,71,,,,,,,,,
,52899,1.1382920742034912,71,,,,,,,,,
,52949,1.1489554643630981,71,,,,,,,,,
,52999,1.1587245464324951,71,,,,,,,,,
,53049,1.3454244136810303,71,,,,,,,,,
,53099,1.0328474044799805,71,,,,,,,,,
,53149,1.2019498348236084,71,,,,,,,,,
,53199,1.0689064264297485,71,,,,,,,,,
,53249,1.077226161956787,71,,,,,,,,,
,53299,1.1525007486343384,71,,,,,,,,,
,53349,1.1528712511062622,71,,,,,,,,,
,53399,1.0567703247070312,71,,,,,,,,,
,53449,1.153338074684143,71,,,,,,,,,
,53499,1.1690293550491333,71,,,,,,,,,
,53549,1.066964864730835,71,,,,,,,,,
,53567,,71,0.9886624813079834,29.926652908325195,5.9315338134765625,7.813041687011719,16.182077407836914,,,,
,53567,,71,,,,,,34.286468505859375,10.784838676452637,5.922554016113281,17.579076766967773
0.0005896891689519189,53568,,,,,,,,,,,
,53599,0.9826011061668396,72,,,,,,,,,
,53649,0.9888937473297119,72,,,,,,,,,
,53699,0.9656807780265808,72,,,,,,,,,
,53749,0.9860968589782715,72,,,,,,,,,
,53799,1.3306041955947876,72,,,,,,,,,
,53849,0.9483215808868408,72,,,,,,,,,
,53899,0.9381783604621887,72,,,,,,,,,
,53949,1.0474051237106323,72,,,,,,,,,
,53999,1.2761043310165405,72,,,,,,,,,
,54049,0.942556619644165,72,,,,,,,,,
,54099,1.0558726787567139,72,,,,,,,,,
,54149,1.2469472885131836,72,,,,,,,,,
,54199,1.1515493392944336,72,,,,,,,,,
,54249,1.0547789335250854,72,,,,,,,,,
,54299,1.1270716190338135,72,,,,,,,,,
,54311,,72,0.9973121881484985,30.676759719848633,7.356876373291016,7.202972888946533,16.116910934448242,,,,
,54311,,72,,,,,,34.267127990722656,10.782529830932617,5.956737041473389,17.527862548828125
0.0005786390152875952,54312,,,,,,,,,,,
,54349,0.990591287612915,73,,,,,,,,,
,54399,1.0217664241790771,73,,,,,,,,,
,54449,0.9756739139556885,73,,,,,,,,,
,54499,1.1155574321746826,73,,,,,,,,,
,54549,0.9804043769836426,73,,,,,,,,,
,54599,0.8887701034545898,73,,,,,,,,,
,54649,1.1946892738342285,73,,,,,,,,,
,54699,1.0558762550354004,73,,,,,,,,,
,54749,1.0787343978881836,73,,,,,,,,,
,54799,1.0802743434906006,73,,,,,,,,,
,54849,0.9293035268783569,73,,,,,,,,,
,54899,1.0146193504333496,73,,,,,,,,,
,54949,1.1667242050170898,73,,,,,,,,,
,54999,1.2003703117370605,73,,,,,,,,,
,55049,1.0492113828659058,73,,,,,,,,,
,55055,,73,1.0076309442520142,30.710037231445312,6.491687774658203,7.754807949066162,16.46354103088379,,,,
,55055,,73,,,,,,34.046852111816406,10.51320743560791,6.040555477142334,17.493091583251953
0.0005675495162759188,55056,,,,,,,,,,,
,55099,1.0226861238479614,74,,,,,,,,,
,55149,0.9760302901268005,74,,,,,,,,,
,55199,1.0698862075805664,74,,,,,,,,,
,55249,1.0564802885055542,74,,,,,,,,,
,55299,1.2176202535629272,74,,,,,,,,,
,55349,1.2737493515014648,74,,,,,,,,,
,55399,1.1068143844604492,74,,,,,,,,,
,55449,1.0549590587615967,74,,,,,,,,,
,55499,0.9507790803909302,74,,,,,,,,,
,55549,1.2647833824157715,74,,,,,,,,,
,55599,1.1156032085418701,74,,,,,,,,,
,55649,1.0881309509277344,74,,,,,,,,,
,55699,0.9190600514411926,74,,,,,,,,,
,55749,0.9707196950912476,74,,,,,,,,,
,55799,0.9789483547210693,74,,,,,,,,,
,55799,,74,0.9942650198936462,30.481260299682617,6.831385135650635,7.3651957511901855,16.284679412841797,,,,
,55799,,74,,,,,,33.887351989746094,10.444968223571777,6.127228736877441,17.315155029296875
0.0005564262558136021,55800,,,,,,,,,,,
,55849,1.1339771747589111,75,,,,,,,,,
,55899,1.0676403045654297,75,,,,,,,,,
,55949,0.9834277629852295,75,,,,,,,,,
,55999,1.1031060218811035,75,,,,,,,,,
,56049,1.1207971572875977,75,,,,,,,,,
,56099,1.090955376625061,75,,,,,,,,,
,56149,1.0760252475738525,75,,,,,,,,,
,56199,0.9459497332572937,75,,,,,,,,,
,56249,1.1634604930877686,75,,,,,,,,,
,56299,1.0274362564086914,75,,,,,,,,,
,56349,0.989443302154541,75,,,,,,,,,
,56399,1.033002257347107,75,,,,,,,,,
,56449,1.0307220220565796,75,,,,,,,,,
,56499,1.0417776107788086,75,,,,,,,,,
,56543,,75,0.9895092248916626,31.184226989746094,9.114984512329102,6.389085292816162,15.680157661437988,,,,
,56543,,75,,,,,,33.81957244873047,10.431488990783691,6.061797618865967,17.326284408569336
0.0005452748347972648,56544,,,,,,,,,,,
,56549,1.2391016483306885,76,,,,,,,,,
,56599,1.0682635307312012,76,,,,,,,,,
,56649,0.9578022360801697,76,,,,,,,,,
,56699,1.0817697048187256,76,,,,,,,,,
,56749,1.08162260055542,76,,,,,,,,,
,56799,1.0908523797988892,76,,,,,,,,,
,56849,1.013564944267273,76,,,,,,,,,
,56899,1.0879870653152466,76,,,,,,,,,
,56949,1.295607566833496,76,,,,,,,,,
,56999,0.929815948009491,76,,,,,,,,,
,57049,1.114561676979065,76,,,,,,,,,
,57099,1.144073486328125,76,,,,,,,,,
,57149,0.9772894978523254,76,,,,,,,,,
,57199,1.1636017560958862,76,,,,,,,,,
,57249,1.0875078439712524,76,,,,,,,,,
,57287,,76,0.9918844103813171,30.594955444335938,7.196040153503418,7.35271692276001,16.046199798583984,,,,
,57287,,76,,,,,,33.98500442504883,10.551314353942871,6.008423328399658,17.425264358520508
0.0005341008683032136,57288,,,,,,,,,,,
,57299,1.001274585723877,77,,,,,,,,,
,57349,1.0245375633239746,77,,,,,,,,,
,57399,1.064622402191162,77,,,,,,,,,
,57449,1.0610345602035522,77,,,,,,,,,
,57499,1.3625026941299438,77,,,,,,,,,
,57549,0.9358892440795898,77,,,,,,,,,
,57599,0.9865072965621948,77,,,,,,,,,
,57649,1.1050859689712524,77,,,,,,,,,
,57699,1.075979471206665,77,,,,,,,,,
,57749,0.8732190728187561,77,,,,,,,,,
,57799,0.9075721502304077,77,,,,,,,,,
,57849,1.1861815452575684,77,,,,,,,,,
,57899,1.0219941139221191,77,,,,,,,,,
,57949,1.2057634592056274,77,,,,,,,,,
,57999,0.9733928442001343,77,,,,,,,,,
,58031,,77,0.9840251803398132,30.556133270263672,7.9433746337890625,6.92982816696167,15.682930946350098,,,,
,58031,,77,,,,,,33.591278076171875,10.355280876159668,6.053440570831299,17.18255615234375
0.0005229099827600821,58032,,,,,,,,,,,
,58049,0.9554914236068726,78,,,,,,,,,
,58099,1.009260654449463,78,,,,,,,,,
,58149,0.9387789964675903,78,,,,,,,,,
,58199,1.2234454154968262,78,,,,,,,,,
,58249,0.9858283996582031,78,,,,,,,,,
,58299,1.05442214012146,78,,,,,,,,,
,58349,1.102515459060669,78,,,,,,,,,
,58399,0.9115024209022522,78,,,,,,,,,
,58449,1.06024169921875,78,,,,,,,,,
,58499,1.0755881071090698,78,,,,,,,,,
,58549,0.8912180662155151,78,,,,,,,,,
,58599,1.1099965572357178,78,,,,,,,,,
,58649,1.158488392829895,78,,,,,,,,,
,58699,1.1531105041503906,78,,,,,,,,,
,58749,1.1428883075714111,78,,,,,,,,,
,58775,,78,0.9741331338882446,29.89753532409668,6.382152557373047,7.526031970977783,15.989351272583008,,,,
,58775,,78,,,,,,33.539939880371094,10.299028396606445,6.018552780151367,17.222360610961914
0.0005117078131157544,58776,,,,,,,,,,,
,58799,1.0747292041778564,79,,,,,,,,,
,58849,0.9238275289535522,79,,,,,,,,,
,58899,1.131906509399414,79,,,,,,,,,
,58949,1.0478861331939697,79,,,,,,,,,
,58999,1.1395275592803955,79,,,,,,,,,
,59049,1.046658992767334,79,,,,,,,,,
,59099,0.9854954481124878,79,,,,,,,,,
,59149,1.3308274745941162,79,,,,,,,,,
,59199,0.9682992696762085,79,,,,,,,,,
,59249,1.0759133100509644,79,,,,,,,,,
,59299,1.1103966236114502,79,,,,,,,,,
,59349,1.0679125785827637,79,,,,,,,,,
,59399,1.2798494100570679,79,,,,,,,,,
,59449,0.9580682516098022,79,,,,,,,,,
,59499,0.9934772849082947,79,,,,,,,,,
,59519,,79,0.9723562598228455,29.886444091796875,6.904870986938477,7.355489730834961,15.626083374023438,,,,
,59519,,79,,,,,,33.26576614379883,10.17843246459961,6.101903438568115,16.985431671142578
0.0005004999999999998,59520,,,,,,,,,,,
,59549,1.0993247032165527,80,,,,,,,,,
,59599,0.9863376617431641,80,,,,,,,,,
,59649,0.7779654860496521,80,,,,,,,,,
,59699,0.9507119655609131,80,,,,,,,,,
,59749,1.1651930809020996,80,,,,,,,,,
,59799,1.084033727645874,80,,,,,,,,,
,59849,1.059363842010498,80,,,,,,,,,
,59899,0.9296319484710693,80,,,,,,,,,
,59949,0.9599441289901733,80,,,,,,,,,
,59999,1.059359073638916,80,,,,,,,,,
,60049,1.0790971517562866,80,,,,,,,,,
,60099,1.026444911956787,80,,,,,,,,,
,60149,1.0087158679962158,80,,,,,,,,,
,60199,1.020728588104248,80,,,,,,,,,
,60249,1.120865821838379,80,,,,,,,,,
,60263,,80,0.9810831546783447,30.045894622802734,6.2393412590026855,7.715985298156738,16.090566635131836,,,,
,60263,,80,,,,,,33.32526779174805,10.135083198547363,6.037764072418213,17.152423858642578
0.0004892921868842453,60264,,,,,,,,,,,
,60299,1.0640034675598145,81,,,,,,,,,
,60349,1.1783149242401123,81,,,,,,,,,
,60399,0.9033746719360352,81,,,,,,,,,
,60449,0.939154863357544,81,,,,,,,,,
,60499,1.0677876472473145,81,,,,,,,,,
,60549,1.1711652278900146,81,,,,,,,,,
,60599,1.029184103012085,81,,,,,,,,,
,60649,1.0498642921447754,81,,,,,,,,,
,60699,0.9442014694213867,81,,,,,,,,,
,60749,1.0524427890777588,81,,,,,,,,,
,60799,1.087529182434082,81,,,,,,,,,
,60849,0.943787693977356,81,,,,,,,,,
,60899,1.0883443355560303,81,,,,,,,,,
,60949,1.1128276586532593,81,,,,,,,,,
,60999,0.9386455416679382,81,,,,,,,,,
,61007,,81,0.9661266803741455,29.767202377319336,6.64143180847168,7.397085666656494,15.72868537902832,,,,
,61007,,81,,,,,,32.77932357788086,9.73237419128418,6.19142484664917,16.855525970458984
0.0004780900172399177,61008,,,,,,,,,,,
,61049,0.82875657081604,82,,,,,,,,,
,61099,0.9434513449668884,82,,,,,,,,,
,61149,1.1751283407211304,82,,,,,,,,,
,61199,1.1774380207061768,82,,,,,,,,,
,61249,1.1943919658660889,82,,,,,,,,,
,61299,1.0322622060775757,82,,,,,,,,,
,61349,1.080642580986023,82,,,,,,,,,
,61399,0.9993725419044495,82,,,,,,,,,
,61449,0.9880110025405884,82,,,,,,,,,
,61499,0.948860764503479,82,,,,,,,,,
,61549,0.9349541664123535,82,,,,,,,,,
,61599,1.1122300624847412,82,,,,,,,,,
,61649,1.103972315788269,82,,,,,,,,,
,61699,0.990524172782898,82,,,,,,,,,
,61749,1.0866800546646118,82,,,,,,,,,
,61751,,82,0.9638489484786987,29.611913681030273,6.261525630950928,7.59258508682251,15.757802963256836,,,,
,61751,,82,,,,,,32.74067306518555,9.872081756591797,6.1230268478393555,16.745563507080078
0.0004668991316967861,61752,,,,,,,,,,,
,61799,1.0054415464401245,83,,,,,,,,,
,61849,1.1437469720840454,83,,,,,,,,,
,61899,1.0747594833374023,83,,,,,,,,,
,61949,1.1129107475280762,83,,,,,,,,,
,61999,0.9963624477386475,83,,,,,,,,,
,62049,1.0712227821350098,83,,,,,,,,,
,62099,0.9101502299308777,83,,,,,,,,,
,62149,1.0531158447265625,83,,,,,,,,,
,62199,0.9260191321372986,83,,,,,,,,,
,62249,1.2374531030654907,83,,,,,,,,,
,62299,0.9464452266693115,83,,,,,,,,,
,62349,1.3189847469329834,83,,,,,,,,,
,62399,0.8094241619110107,83,,,,,,,,,
,62449,0.9899262189865112,83,,,,,,,,,
,62495,,83,0.955319344997406,29.498218536376953,6.687187194824219,7.12671422958374,15.684316635131836,,,,
,62495,,83,,,,,,32.66816329956055,9.826532363891602,6.045783519744873,16.795846939086914
0.0004557251652027349,62496,,,,,,,,,,,
,62499,0.9394659996032715,84,,,,,,,,,
,62549,1.003468632698059,84,,,,,,,,,
,62599,1.091609001159668,84,,,,,,,,,
,62649,0.8733965158462524,84,,,,,,,,,
,62699,1.1773231029510498,84,,,,,,,,,
,62749,1.1880772113800049,84,,,,,,,,,
,62799,0.8742761611938477,84,,,,,,,,,
,62849,1.103611946105957,84,,,,,,,,,
,62899,1.047576665878296,84,,,,,,,,,
,62949,1.0666524171829224,84,,,,,,,,,
,62999,1.0777244567871094,84,,,,,,,,,
,63049,1.016352653503418,84,,,,,,,,,
,63099,1.1459627151489258,84,,,,,,,,,
,63149,1.0115991830825806,84,,,,,,,,,
,63199,0.8351388573646545,84,,,,,,,,,
,63239,,84,0.9628269076347351,29.427505493164062,6.010565280914307,7.64111328125,15.775827407836914,,,,
,63239,,84,,,,,,32.45278549194336,9.762009620666504,6.084655284881592,16.60611915588379
0.0004445737441863976,63240,,,,,,,,,,,
,63249,0.9841804504394531,85,,,,,,,,,
,63299,1.0270445346832275,85,,,,,,,,,
,63349,1.02848482131958,85,,,,,,,,,
,63399,1.0188922882080078,85,,,,,,,,,
,63449,1.0658209323883057,85,,,,,,,,,
,63499,1.1138205528259277,85,,,,,,,,,
,63549,1.2592511177062988,85,,,,,,,,,
,63599,1.0523836612701416,85,,,,,,,,,
,63649,1.1148591041564941,85,,,,,,,,,
,63699,1.070902705192566,85,,,,,,,,,
,63749,0.9714009165763855,85,,,,,,,,,
,63799,1.0698211193084717,85,,,,,,,,,
,63849,1.1016464233398438,85,,,,,,,,,
,63899,0.950641393661499,85,,,,,,,,,
,63949,0.9501405358314514,85,,,,,,,,,
,63983,,85,0.9656634330749512,29.263896942138672,5.795654773712158,7.810268402099609,15.657973289489746,,,,
,63983,,85,,,,,,32.34272766113281,9.729326248168945,6.071488380432129,16.541915893554688
0.000433450483724081,63984,,,,,,,,,,,
,63999,0.989734411239624,86,,,,,,,,,
,64049,1.0095057487487793,86,,,,,,,,,
,64099,0.9641099572181702,86,,,,,,,,,
,64149,1.117903470993042,86,,,,,,,,,
,64199,0.9394497275352478,86,,,,,,,,,
,64249,0.9771534204483032,86,,,,,,,,,
,64299,0.9080784320831299,86,,,,,,,,,
,64349,1.1307215690612793,86,,,,,,,,,
,64399,0.8893713355064392,86,,,,,,,,,
,64449,1.0260144472122192,86,,,,,,,,,
,64499,0.9979812502861023,86,,,,,,,,,
,64549,0.9321513175964355,86,,,,,,,,,
,64599,1.0391647815704346,86,,,,,,,,,
,64649,0.9522877335548401,86,,,,,,,,,
,64699,1.0623135566711426,86,,,,,,,,,
,64727,,86,0.9586392641067505,29.514856338500977,7.282004356384277,6.831385135650635,15.401467323303223,,,,
,64727,,86,,,,,,32.06258010864258,9.441255569458008,6.162746429443359,16.45857810974121
0.0004223609847124046,64728,,,,,,,,,,,
,64749,1.0474162101745605,87,,,,,,,,,
,64799,1.079988956451416,87,,,,,,,,,
,64849,0.9731769561767578,87,,,,,,,,,
,64899,0.9067060351371765,87,,,,,,,,,
,64949,0.8925592303276062,87,,,,,,,,,
,64999,1.0056325197219849,87,,,,,,,,,
,65049,1.2745006084442139,87,,,,,,,,,
,65099,1.0110529661178589,87,,,,,,,,,
,65149,1.0707428455352783,87,,,,,,,,,
,65199,0.9805862903594971,87,,,,,,,,,
,65249,0.9372835159301758,87,,,,,,,,,
,65299,0.9225543737411499,87,,,,,,,,,
,65349,1.0115407705307007,87,,,,,,,,,
,65399,1.090179204940796,87,,,,,,,,,
,65449,0.932161808013916,87,,,,,,,,,
,65471,,87,0.9546539187431335,29.33460807800293,6.3266921043396,7.438681125640869,15.569235801696777,,,,
,65471,,87,,,,,,31.965314865112305,9.485294342041016,6.134340763092041,16.345680236816406
0.0004113108310480809,65472,,,,,,,,,,,
,65499,1.0289280414581299,88,,,,,,,,,
,65549,0.8649136424064636,88,,,,,,,,,
,65599,1.0548207759857178,88,,,,,,,,,
,65649,1.0477973222732544,88,,,,,,,,,
,65699,1.1189545392990112,88,,,,,,,,,
,65749,0.9080203771591187,88,,,,,,,,,
,65799,0.9383652806282043,88,,,,,,,,,
,65849,1.1049461364746094,88,,,,,,,,,
,65899,0.9210048913955688,88,,,,,,,,,
,65949,1.0333750247955322,88,,,,,,,,,
,65999,0.8580999970436096,88,,,,,,,,,
,66049,1.2713334560394287,88,,,,,,,,,
,66099,0.9301865100860596,88,,,,,,,,,
,66149,0.9646086692810059,88,,,,,,,,,
,66199,1.1609598398208618,88,,,,,,,,,
,66215,,88,0.9560950994491577,29.08780860900879,6.631726264953613,7.244568347930908,15.21151351928711,,,,
,66215,,88,,,,,,32.19374465942383,9.54561710357666,6.212703704833984,16.4354248046875
0.00040030558681625514,66216,,,,,,,,,,,
,66249,0.8413600921630859,89,,,,,,,,,
,66299,0.8400043249130249,89,,,,,,,,,
,66349,0.7307770252227783,89,,,,,,,,,
,66399,0.8685050010681152,89,,,,,,,,,
,66449,0.9657771587371826,89,,,,,,,,,
,66499,0.9381639361381531,89,,,,,,,,,
,66549,1.0036039352416992,89,,,,,,,,,
,66599,1.081235647201538,89,,,,,,,,,
,66649,1.055845022201538,89,,,,,,,,,
,66699,1.0681021213531494,89,,,,,,,,,
,66749,0.8636835813522339,89,,,,,,,,,
,66799,0.8524971604347229,89,,,,,,,,,
,66849,0.9723944067955017,89,,,,,,,,,
,66899,0.7942138910293579,89,,,,,,,,,
,66949,1.0167911052703857,89,,,,,,,,,
,66959,,89,0.9566066861152649,29.103059768676758,6.554081439971924,7.330532550811768,15.218446731567383,,,,
,66959,,89,,,,,,31.69190216064453,9.36851692199707,6.21061897277832,16.11276626586914
0.0003893507934888208,66960,,,,,,,,,,,
,66999,0.9448220729827881,90,,,,,,,,,
,67049,1.3115564584732056,90,,,,,,,,,
,67099,0.8948708772659302,90,,,,,,,,,
,67149,1.0367259979248047,90,,,,,,,,,
,67199,1.2580947875976562,90,,,,,,,,,
,67249,1.0844546556472778,90,,,,,,,,,
,67299,1.0407096147537231,90,,,,,,,,,
,67349,1.0270346403121948,90,,,,,,,,,
,67399,0.8844263553619385,90,,,,,,,,,
,67449,0.9880558252334595,90,,,,,,,,,
,67499,1.0995384454727173,90,,,,,,,,,
,67549,0.8005725741386414,90,,,,,,,,,
,67599,0.7624824047088623,90,,,,,,,,,
,67649,0.8872342109680176,90,,,,,,,,,
,67699,1.0497417449951172,90,,,,,,,,,
,67703,,90,0.9456137418746948,29.040666580200195,6.405723571777344,7.426202297210693,15.208740234375,,,,
,67703,,90,,,,,,31.820207595825195,9.343663215637207,6.280045032501221,16.196500778198242
0.0003784519671341218,67704,,,,,,,,,,,
,67749,0.9741216897964478,91,,,,,,,,,
,67799,0.9035914540290833,91,,,,,,,,,
,67849,1.1304004192352295,91,,,,,,,,,
,67899,1.0138874053955078,91,,,,,,,,,
,67949,0.9969888925552368,91,,,,,,,,,
,67999,0.9991335272789001,91,,,,,,,,,
,68049,1.086972951889038,91,,,,,,,,,
,68099,0.9551244974136353,91,,,,,,,,,
,68149,1.013770580291748,91,,,,,,,,,
,68199,0.9177892208099365,91,,,,,,,,,
,68249,0.8435633182525635,91,,,,,,,,,
,68299,0.9493531584739685,91,,,,,,,,,
,68349,0.9993963241577148,91,,,,,,,,,
,68399,1.3531783819198608,91,,,,,,,,,
,68447,,91,0.9450265169143677,28.64273452758789,5.862207412719727,7.545443058013916,15.235084533691406,,,,
,68447,,91,,,,,,31.488407135009766,9.203054428100586,6.2211527824401855,16.064199447631836
0.00036761459563944575,68448,,,,,,,,,,,
,68449,0.8942036628723145,92,,,,,,,,,
,68499,0.8724209070205688,92,,,,,,,,,
,68549,0.9924261569976807,92,,,,,,,,,
,68599,1.08353853225708,92,,,,,,,,,
,68649,1.0110746622085571,92,,,,,,,,,
,68699,1.0637366771697998,92,,,,,,,,,
,68749,0.9576444029808044,92,,,,,,,,,
,68799,0.9790380001068115,92,,,,,,,,,
,68849,1.0923739671707153,92,,,,,,,,,
,68899,0.8447974920272827,92,,,,,,,,,
,68949,1.0319242477416992,92,,,,,,,,,
,68999,0.8287036418914795,92,,,,,,,,,
,69049,1.026705265045166,92,,,,,,,,,
,69099,0.9934473037719727,92,,,,,,,,,
,69149,1.0046262741088867,92,,,,,,,,,
,69191,,92,0.9415274262428284,28.687103271484375,6.258752346038818,7.2778449058532715,15.150506973266602,,,,
,69191,,92,,,,,,31.39124298095703,9.125994682312012,6.198673725128174,16.066574096679688
0.0003568441359477071,69192,,,,,,,,,,,
,69199,0.9733753204345703,93,,,,,,,,,
,69249,0.8508586883544922,93,,,,,,,,,
,69299,1.0334594249725342,93,,,,,,,,,
,69349,1.17677640914917,93,,,,,,,,,
,69399,0.9717646837234497,93,,,,,,,,,
,69449,0.9588342905044556,93,,,,,,,,,
,69499,0.9219585061073303,93,,,,,,,,,
,69549,0.8592624664306641,93,,,,,,,,,
,69599,0.9662466049194336,93,,,,,,,,,
,69649,0.9409778118133545,93,,,,,,,,,
,69699,0.9383606314659119,93,,,,,,,,,
,69749,1.1674292087554932,93,,,,,,,,,
,69799,0.8622946739196777,93,,,,,,,,,
,69849,0.9558380842208862,93,,,,,,,,,
,69899,0.867867648601532,93,,,,,,,,,
,69935,,93,0.9388858079910278,28.535972595214844,5.939852714538574,7.513553142547607,15.08256721496582,,,,
,69935,,93,,,,,,31.37898063659668,9.19696044921875,6.160491943359375,16.021528244018555
0.0003461460113097136,69936,,,,,,,,,,,
,69949,1.0287808179855347,94,,,,,,,,,
,69999,1.003687858581543,94,,,,,,,,,
,70049,1.0802735090255737,94,,,,,,,,,
,70099,0.871281087398529,94,,,,,,,,,
,70149,0.9215123057365417,94,,,,,,,,,
,70199,0.9964412450790405,94,,,,,,,,,
,70249,0.8179987668991089,94,,,,,,,,,
,70299,1.242846965789795,94,,,,,,,,,
,70349,1.1158103942871094,94,,,,,,,,,
,70399,0.8987958431243896,94,,,,,,,,,
,70449,0.9985589981079102,94,,,,,,,,,
,70499,0.9370923638343811,94,,,,,,,,,
,70549,0.9368102550506592,94,,,,,,,,,
,70599,1.0026445388793945,94,,,,,,,,,
,70649,0.9598326683044434,94,,,,,,,,,
,70679,,94,0.9404109120368958,28.8853759765625,6.677481651306152,7.130873680114746,15.077021598815918,,,,
,70679,,94,,,,,,31.3194637298584,9.032574653625488,6.291637420654297,15.995250701904297
0.0003355256085533939,70680,,,,,,,,,,,
,70699,1.032670021057129,95,,,,,,,,,
,70749,0.8917586207389832,95,,,,,,,,,
,70799,0.8975008726119995,95,,,,,,,,,
,70849,1.0455021858215332,95,,,,,,,,,
,70899,0.9416122436523438,95,,,,,,,,,
,70949,0.9065380096435547,95,,,,,,,,,
,70999,0.8154404759407043,95,,,,,,,,,
,71049,0.7934244871139526,95,,,,,,,,,
,71099,0.9454233646392822,95,,,,,,,,,
,71149,1.0980455875396729,95,,,,,,,,,
,71199,0.9078547358512878,95,,,,,,,,,
,71249,1.0056302547454834,95,,,,,,,,,
,71299,0.9933212995529175,95,,,,,,,,,
,71349,1.1294631958007812,95,,,,,,,,,
,71399,1.1078746318817139,95,,,,,,,,,
,71423,,95,0.9344392418861389,28.695423126220703,6.651137828826904,7.189107418060303,14.855177879333496,,,,
,71423,,95,,,,,,31.248125076293945,8.922232627868652,6.330097675323486,15.995796203613281
0.0003249882753713692,71424,,,,,,,,,,,
,71449,0.87357097864151,96,,,,,,,,,
,71499,0.9272883534431458,96,,,,,,,,,
,71549,0.9559580087661743,96,,,,,,,,,
,71599,1.0025757551193237,96,,,,,,,,,
,71649,0.9905131459236145,96,,,,,,,,,
,71699,0.8618555068969727,96,,,,,,,,,
,71749,1.0063955783843994,96,,,,,,,,,
,71799,0.9813429713249207,96,,,,,,,,,
,71849,0.9256410002708435,96,,,,,,,,,
,71899,0.9133732318878174,96,,,,,,,,,
,71949,0.9447027444839478,96,,,,,,,,,
,71999,0.9955858588218689,96,,,,,,,,,
,72049,0.8205682039260864,96,,,,,,,,,
,72099,0.959254801273346,96,,,,,,,,,
,72149,0.8406122922897339,96,,,,,,,,,
,72167,,96,0.9276728630065918,28.477739334106445,6.361354827880859,7.241795063018799,14.874588966369629,,,,
,72167,,96,,,,,,30.768115997314453,8.874372482299805,6.2620673179626465,15.631677627563477
0.00031453931762822837,72168,,,,,,,,,,,
,72199,0.9921814799308777,97,,,,,,,,,
,72249,0.940770149230957,97,,,,,,,,,
,72299,0.8689764738082886,97,,,,,,,,,
,72349,0.8955367803573608,97,,,,,,,,,
,72399,0.9054396748542786,97,,,,,,,,,
,72449,0.9937676191329956,97,,,,,,,,,
,72499,0.9718750715255737,97,,,,,,,,,
,72549,0.9931913018226624,97,,,,,,,,,
,72599,1.0070610046386719,97,,,,,,,,,
,72649,0.8514584898948669,97,,,,,,,,,
,72699,1.0552321672439575,97,,,,,,,,,
,72749,0.9124233722686768,97,,,,,,,,,
,72799,0.9484972953796387,97,,,,,,,,,
,72849,1.0155694484710693,97,,,,,,,,,
,72899,0.8917775750160217,97,,,,,,,,,
,72911,,97,0.9351654648780823,28.330768585205078,5.508645057678223,7.788084030151367,15.034039497375488,,,,
,72911,,97,,,,,,30.742084503173828,8.786076545715332,6.20546293258667,15.750543594360352
0.0003041839966888652,72912,,,,,,,,,,,
,72949,1.0030043125152588,98,,,,,,,,,
,72999,0.9417240023612976,98,,,,,,,,,
,73049,1.1098487377166748,98,,,,,,,,,
,73099,0.9430356621742249,98,,,,,,,,,
,73149,0.8729546070098877,98,,,,,,,,,
,73199,0.8914732933044434,98,,,,,,,,,
,73249,0.9171226024627686,98,,,,,,,,,
,73299,1.0255621671676636,98,,,,,,,,,
,73349,0.9902921319007874,98,,,,,,,,,
,73399,0.9109076261520386,98,,,,,,,,,
,73449,1.002885103225708,98,,,,,,,,,
,73499,0.9786809682846069,98,,,,,,,,,
,73549,0.9542123079299927,98,,,,,,,,,
,73599,0.9712163209915161,98,,,,,,,,,
,73649,1.0330342054367065,98,,,,,,,,,
,73655,,98,0.9347522854804993,28.53458595275879,6.066026210784912,7.379060745239258,15.089499473571777,,,,
,73655,,98,,,,,,30.7060546875,8.684762001037598,6.329741477966309,15.69155216217041
0.0002939275267692228,73656,,,,,,,,,,,
,73699,0.8973535299301147,99,,,,,,,,,
,73749,1.0486273765563965,99,,,,,,,,,
,73799,0.9878597855567932,99,,,,,,,,,
,73849,0.9312133193016052,99,,,,,,,,,
,73899,1.0987662076950073,99,,,,,,,,,
,73949,0.9530389308929443,99,,,,,,,,,
,73999,0.9962934255599976,99,,,,,,,,,
,74049,1.0874195098876953,99,,,,,,,,,
,74099,0.9379920959472656,99,,,,,,,,,
,74149,0.8858397006988525,99,,,,,,,,,
,74199,0.8615199327468872,99,,,,,,,,,
,74249,0.9304365515708923,99,,,,,,,,,
,74299,0.8526374697685242,99,,,,,,,,,
,74349,0.8100055456161499,99,,,,,,,,,
,74399,0.8081797361373901,99,,,,,,,,,
,74399,,99,0.9294822216033936,28.664918899536133,6.8327717781066895,6.994994640350342,14.837153434753418,,,,
,74399,,99,,,,,,30.442466735839844,8.683545112609863,6.300117492675781,15.458803176879883
0.00028377507231077965,74400,,,,,,,,,,,
,74449,0.9146953821182251,100,,,,,,,,,
,74499,0.9752161502838135,100,,,,,,,,,
,74549,0.8805840015411377,100,,,,,,,,,
,74599,0.8814586400985718,100,,,,,,,,,
,74649,1.02830970287323,100,,,,,,,,,
,74699,0.8852840662002563,100,,,,,,,,,
,74749,0.9690424203872681,100,,,,,,,,,
,74799,1.1624855995178223,100,,,,,,,,,
,74849,0.9260125756263733,100,,,,,,,,,
,74899,0.9222120046615601,100,,,,,,,,,
,74949,0.8916953206062317,100,,,,,,,,,
,74999,0.9925651550292969,100,,,,,,,,,
,75049,0.8357986211776733,100,,,,,,,,,
,75099,0.8903773427009583,100,,,,,,,,,
,75143,,100,0.924360990524292,28.258668899536133,6.099302768707275,7.351330280303955,14.808035850524902,,,,
,75143,,100,,,,,,30.549699783325195,8.67762565612793,6.266315937042236,15.605756759643555
0.0002737317453800963,75144,,,,,,,,,,,
,75149,0.8912089467048645,101,,,,,,,,,
,75199,0.9852513074874878,101,,,,,,,,,
,75249,0.980608344078064,101,,,,,,,,,
,75299,0.9915925860404968,101,,,,,,,,,
,75349,0.9079881906509399,101,,,,,,,,,
,75399,0.9152994155883789,101,,,,,,,,,
,75449,0.9023691415786743,101,,,,,,,,,
,75499,1.031295895576477,101,,,,,,,,,
,75549,1.2750399112701416,101,,,,,,,,,
,75599,0.8150908350944519,101,,,,,,,,,
,75649,0.9704177379608154,101,,,,,,,,,
,75699,0.7954357266426086,101,,,,,,,,,
,75749,1.104479193687439,101,,,,,,,,,
,75799,0.9039443135261536,101,,,,,,,,,
,75849,1.1282967329025269,101,,,,,,,,,
,75887,,101,0.9327489733695984,28.725927352905273,6.884073257446289,6.909030437469482,14.932823181152344,,,,
,75887,,101,,,,,,30.42996597290039,8.566791534423828,6.251267910003662,15.611907005310059
0.00026380260309473707,75888,,,,,,,,,,,
,75899,0.9270101189613342,102,,,,,,,,,
,75949,0.8364005088806152,102,,,,,,,,,
,75999,0.8383755087852478,102,,,,,,,,,
,76049,0.9951181411743164,102,,,,,,,,,
,76099,0.9716114401817322,102,,,,,,,,,
,76149,0.9556581974029541,102,,,,,,,,,
,76199,1.0431711673736572,102,,,,,,,,,
,76249,1.0020337104797363,102,,,,,,,,,
,76299,0.8833545446395874,102,,,,,,,,,
,76349,0.8765351176261902,102,,,,,,,,,
,76399,0.965410053730011,102,,,,,,,,,
,76449,0.9202194213867188,102,,,,,,,,,
,76499,1.1251442432403564,102,,,,,,,,,
,76549,1.1453081369400024,102,,,,,,,,,
,76599,0.8375570774078369,102,,,,,,,,,
,76631,,102,0.9251770377159119,28.31690216064453,6.2809367179870605,7.288937091827393,14.747029304504395,,,,
,76631,,102,,,,,,30.262948989868164,8.622587203979492,6.2663960456848145,15.373967170715332
0.0002539926450768586,76632,,,,,,,,,,,
,76649,0.9663593173027039,103,,,,,,,,,
,76699,1.1609750986099243,103,,,,,,,,,
,76749,0.825247585773468,103,,,,,,,,,
,76799,1.050806999206543,103,,,,,,,,,
,76849,1.0544188022613525,103,,,,,,,,,
,76899,0.9415768384933472,103,,,,,,,,,
,76949,1.082004189491272,103,,,,,,,,,
,76999,1.066527009010315,103,,,,,,,,,
,77049,0.9628423452377319,103,,,,,,,,,
,77099,0.8595835566520691,103,,,,,,,,,
,77149,0.68890380859375,103,,,,,,,,,
,77199,0.8859135508537292,103,,,,,,,,,
,77249,0.8994597792625427,103,,,,,,,,,
,77299,0.8146677613258362,103,,,,,,,,,
,77349,0.9951669573783875,103,,,,,,,,,
,77375,,103,0.929800808429718,28.19627571105957,5.38108491897583,7.750648021697998,15.064542770385742,,,,
,77375,,103,,,,,,30.072111129760742,8.594057083129883,6.262848377227783,15.215206146240234
0.00024430681093574983,77376,,,,,,,,,,,
,77399,0.8806413412094116,104,,,,,,,,,
,77449,0.9583210945129395,104,,,,,,,,,
,77499,0.8816249370574951,104,,,,,,,,,
,77549,0.9762361645698547,104,,,,,,,,,
,77599,0.9413704872131348,104,,,,,,,,,
,77649,0.7705366611480713,104,,,,,,,,,
,77699,0.8865740895271301,104,,,,,,,,,
,77749,1.0423299074172974,104,,,,,,,,,
,77799,1.069472074508667,104,,,,,,,,,
,77849,0.7801812887191772,104,,,,,,,,,
,77899,0.9360904693603516,104,,,,,,,,,
,77949,0.8286575675010681,104,,,,,,,,,
,77999,1.057053804397583,104,,,,,,,,,
,78049,0.9052184820175171,104,,,,,,,,,
,78099,0.9470038414001465,104,,,,,,,,,
,78119,,104,0.9249980449676514,28.189342498779297,6.1519904136657715,7.320827007293701,14.71652603149414,,,,
,78119,,104,,,,,,30.08925437927246,8.475319862365723,6.307154655456543,15.306780815124512
0.00023474997778058935,78120,,,,,,,,,,,
,78149,0.9118947982788086,105,,,,,,,,,
,78199,1.023485541343689,105,,,,,,,,,
,78249,0.9181450605392456,105,,,,,,,,,
,78299,1.0288375616073608,105,,,,,,,,,
,78349,0.9631927609443665,105,,,,,,,,,
,78399,1.0008583068847656,105,,,,,,,,,
,78449,0.9618621468544006,105,,,,,,,,,
,78499,0.8727093935012817,105,,,,,,,,,
,78549,1.0385042428970337,105,,,,,,,,,
,78599,0.952427327632904,105,,,,,,,,,
,78649,0.91643887758255,105,,,,,,,,,
,78699,0.8694807291030884,105,,,,,,,,,
,78749,1.0310641527175903,105,,,,,,,,,
,78799,0.8792083263397217,105,,,,,,,,,
,78849,0.8583979606628418,105,,,,,,,,,
,78863,,105,0.9281094670295715,28.172704696655273,6.156149864196777,7.376287937164307,14.640267372131348,,,,
,78863,,105,,,,,,30.112224578857422,8.537862777709961,6.321752071380615,15.252609252929688
0.00022532695776467476,78864,,,,,,,,,,,
,78899,1.1658130884170532,106,,,,,,,,,
,78949,0.9557595252990723,106,,,,,,,,,
,78999,0.7584676146507263,106,,,,,,,,,
,79049,0.965010941028595,106,,,,,,,,,
,79099,0.9491161108016968,106,,,,,,,,,
,79149,0.8771578073501587,106,,,,,,,,,
,79199,0.8650897741317749,106,,,,,,,,,
,79249,1.075155258178711,106,,,,,,,,,
,79299,0.9147199392318726,106,,,,,,,,,
,79349,0.7723807096481323,106,,,,,,,,,
,79399,1.1292493343353271,106,,,,,,,,,
,79449,0.9271323680877686,106,,,,,,,,,
,79499,0.873461127281189,106,,,,,,,,,
,79549,0.7529941201210022,106,,,,,,,,,
,79599,0.8815320730209351,106,,,,,,,,,
,79607,,106,0.9270228147506714,28.061782836914062,5.566878795623779,7.67577600479126,14.819128036499023,,,,
,79607,,106,,,,,,29.921764373779297,8.444534301757812,6.34580135345459,15.131428718566895
0.00021604249566235817,79608,,,,,,,,,,,
,79649,1.0817675590515137,107,,,,,,,,,
,79699,1.0124562978744507,107,,,,,,,,,
,79749,0.7708765268325806,107,,,,,,,,,
,79799,1.0734379291534424,107,,,,,,,,,
,79849,0.9097286462783813,107,,,,,,,,,
,79899,0.9792987108230591,107,,,,,,,,,
,79949,0.9104052186012268,107,,,,,,,,,
,79999,0.6962500810623169,107,,,,,,,,,
,80049,0.8708597421646118,107,,,,,,,,,
,80099,0.8477665185928345,107,,,,,,,,,
,80149,0.8094021081924438,107,,,,,,,,,
,80199,0.9984808564186096,107,,,,,,,,,
,80249,0.8629858493804932,107,,,,,,,,,
,80299,1.019314169883728,107,,,,,,,,,
,80349,0.9078499674797058,107,,,,,,,,,
,80351,,107,0.9219409227371216,28.049304962158203,6.47227668762207,7.0837321281433105,14.49329662322998,,,,
,80351,,107,,,,,,29.940874099731445,8.45250415802002,6.28506326675415,15.203306198120117
0.00020690126647990965,80352,,,,,,,,,,,
,80399,0.8240245580673218,108,,,,,,,,,
,80449,0.9356452226638794,108,,,,,,,,,
,80499,0.8473678827285767,108,,,,,,,,,
,80549,0.9650936722755432,108,,,,,,,,,
,80599,0.9126326441764832,108,,,,,,,,,
,80649,1.0036213397979736,108,,,,,,,,,
,80699,0.9131270051002502,108,,,,,,,,,
,80749,0.9690180420875549,108,,,,,,,,,
,80799,0.9602882266044617,108,,,,,,,,,
,80849,0.9313342571258545,108,,,,,,,,,
,80899,0.8876669406890869,108,,,,,,,,,
,80949,0.949995219707489,108,,,,,,,,,
,80999,1.1330218315124512,108,,,,,,,,,
,81049,0.7580180168151855,108,,,,,,,,,
,81095,,108,0.9217399954795837,27.906492233276367,5.594609260559082,7.771446228027344,14.540437698364258,,,,
,81095,,108,,,,,,29.582801818847656,8.361344337463379,6.365181922912598,14.856276512145996
0.00019790787310151043,81096,,,,,,,,,,,
,81099,0.8607434630393982,109,,,,,,,,,
,81149,1.007781744003296,109,,,,,,,,,
,81199,0.8502233028411865,109,,,,,,,,,
,81249,0.9950623512268066,109,,,,,,,,,
,81299,0.9012647867202759,109,,,,,,,,,
,81349,0.9169575572013855,109,,,,,,,,,
,81399,0.7729736566543579,109,,,,,,,,,
,81449,0.924648642539978,109,,,,,,,,,
,81499,0.9621552228927612,109,,,,,,,,,
,81549,0.9100348353385925,109,,,,,,,,,
,81599,1.007999062538147,109,,,,,,,,,
,81649,0.9332170486450195,109,,,,,,,,,
,81699,0.8628265857696533,109,,,,,,,,,
,81749,0.8331764936447144,109,,,,,,,,,
,81799,1.0271329879760742,109,,,,,,,,,
,81839,,109,0.9188792705535889,28.061782836914062,5.967583179473877,7.470571041107178,14.623628616333008,,,,
,81839,,109,,,,,,29.685047149658203,8.342976570129395,6.2726240158081055,15.069446563720703
0.00018906684397156255,81840,,,,,,,,,,,
,81849,0.8565020561218262,110,,,,,,,,,
,81899,1.0142791271209717,110,,,,,,,,,
,81949,0.8788026571273804,110,,,,,,,,,
,81999,0.9395155906677246,110,,,,,,,,,
,82049,0.789846658706665,110,,,,,,,,,
,82099,0.9373378157615662,110,,,,,,,,,
,82149,0.9268338084220886,110,,,,,,,,,
,82199,0.9264386892318726,110,,,,,,,,,
,82249,0.9725915789604187,110,,,,,,,,,
,82299,0.8581897616386414,110,,,,,,,,,
,82349,0.8039251565933228,110,,,,,,,,,
,82399,0.9433490037918091,110,,,,,,,,,
,82449,0.8588480949401855,110,,,,,,,,,
,82499,0.8826766014099121,110,,,,,,,,,
,82549,0.9837714433670044,110,,,,,,,,,
,82583,,110,0.9179187417030334,27.927289962768555,5.9467854499816895,7.466411590576172,14.514094352722168,,,,
,82583,,110,,,,,,29.385955810546875,8.33639144897461,6.267261505126953,14.782303810119629
0.00018038263081448039,82584,,,,,,,,,,,
,82599,1.003637433052063,111,,,,,,,,,
,82649,1.2591702938079834,111,,,,,,,,,
,82699,0.8974200487136841,111,,,,,,,,,
,82749,0.8945609331130981,111,,,,,,,,,
,82799,0.8848811388015747,111,,,,,,,,,
,82849,0.7453210353851318,111,,,,,,,,,
,82899,1.0180611610412598,111,,,,,,,,,
,82949,0.8272868990898132,111,,,,,,,,,
,82999,0.8898114562034607,111,,,,,,,,,
,83049,0.7512019872665405,111,,,,,,,,,
,83099,0.8893146514892578,111,,,,,,,,,
,83149,0.9074625372886658,111,,,,,,,,,
,83199,0.9537327289581299,111,,,,,,,,,
,83249,0.838849663734436,111,,,,,,,,,
,83299,0.7640342712402344,111,,,,,,,,,
,83327,,111,0.9129042029380798,27.694355010986328,5.906576156616211,7.337465286254883,14.45031452178955,,,,
,83327,,111,,,,,,29.392457962036133,8.23682689666748,6.292074203491211,14.863557815551758
0.0001718596063931135,83328,,,,,,,,,,,
,83349,1.042619228363037,112,,,,,,,,,
,83399,0.8187296986579895,112,,,,,,,,,
,83449,0.7560551762580872,112,,,,,,,,,
,83499,0.7883601188659668,112,,,,,,,,,
,83549,0.9796037673950195,112,,,,,,,,,
,83599,0.8859567642211914,112,,,,,,,,,
,83649,0.9398757219314575,112,,,,,,,,,
,83699,0.789677619934082,112,,,,,,,,,
,83749,0.9136953353881836,112,,,,,,,,,
,83799,0.8707133531570435,112,,,,,,,,,
,83849,0.9399212598800659,112,,,,,,,,,
,83899,0.7816797494888306,112,,,,,,,,,
,83949,0.829136848449707,112,,,,,,,,,
,83999,0.8596808910369873,112,,,,,,,,,
,84049,0.8982431888580322,112,,,,,,,,,
,84071,,112,0.9096382260322571,27.745656967163086,6.260138988494873,7.132260322570801,14.353257179260254,,,,
,84071,,112,,,,,,29.140628814697266,8.099898338317871,6.292762279510498,14.747967720031738
0.00016350206230692882,84072,,,,,,,,,,,
,84099,0.8117674589157104,113,,,,,,,,,
,84149,0.9981160759925842,113,,,,,,,,,
,84199,0.9927810430526733,113,,,,,,,,,
,84249,0.9464939832687378,113,,,,,,,,,
,84299,1.1755948066711426,113,,,,,,,,,
,84349,0.9875872731208801,113,,,,,,,,,
,84399,0.7876127362251282,113,,,,,,,,,
,84449,0.9349589943885803,113,,,,,,,,,
,84499,0.984149158000946,113,,,,,,,,,
,84549,0.9157789945602417,113,,,,,,,,,
,84599,0.8206372261047363,113,,,,,,,,,
,84649,1.0366967916488647,113,,,,,,,,,
,84699,0.8097097873687744,113,,,,,,,,,
,84749,0.9316926002502441,113,,,,,,,,,
,84799,0.9249372482299805,113,,,,,,,,,
,84815,,113,0.9106154441833496,27.79973030090332,5.705530643463135,7.555149078369141,14.539051055908203,,,,
,84815,,113,,,,,,29.154664993286133,8.037388801574707,6.304895401000977,14.81238079071045
0.00015531420683106105,84816,,,,,,,,,,,
,84849,0.9996059536933899,114,,,,,,,,,
,84899,0.8754850625991821,114,,,,,,,,,
,84949,1.0506466627120972,114,,,,,,,,,
,84999,0.9930276274681091,114,,,,,,,,,
,85049,0.8310381174087524,114,,,,,,,,,
,85099,1.1497876644134521,114,,,,,,,,,
,85149,0.7651864886283875,114,,,,,,,,,
,85199,0.7260571718215942,114,,,,,,,,,
,85249,0.8750872015953064,114,,,,,,,,,
,85299,0.9828482866287231,114,,,,,,,,,
,85349,0.7725588083267212,114,,,,,,,,,
,85399,0.827498733997345,114,,,,,,,,,
,85449,0.7582746148109436,114,,,,,,,,,
,85499,0.8029556274414062,114,,,,,,,,,
,85549,0.9033652544021606,114,,,,,,,,,
,85559,,114,0.9044432640075684,27.60561752319336,5.98699426651001,7.355489730834961,14.263134002685547,,,,
,85559,,114,,,,,,28.932031631469727,8.014760971069336,6.32100248336792,14.596267700195312
0.0001473001627973195,85560,,,,,,,,,,,
,85599,0.8891730308532715,115,,,,,,,,,
,85649,1.125962257385254,115,,,,,,,,,
,85699,0.8689782023429871,115,,,,,,,,,
,85749,0.9390445947647095,115,,,,,,,,,
,85799,0.8881801962852478,115,,,,,,,,,
,85849,0.9423154592514038,115,,,,,,,,,
,85899,0.8255700469017029,115,,,,,,,,,
,85949,0.723469078540802,115,,,,,,,,,
,85999,0.9154002666473389,115,,,,,,,,,
,86049,0.9709511995315552,115,,,,,,,,,
,86099,1.032546043395996,115,,,,,,,,,
,86149,0.7940608859062195,115,,,,,,,,,
,86199,0.9266061186790466,115,,,,,,,,,
,86249,0.9002627730369568,115,,,,,,,,,
,86299,1.0173825025558472,115,,,,,,,,,
,86303,,115,0.9043871760368347,27.658306121826172,6.1367387771606445,7.247341156005859,14.274226188659668,,,,
,86303,,115,,,,,,29.12874984741211,8.062082290649414,6.340734958648682,14.725932121276855
0.0001394639655182179,86304,,,,,,,,,,,
,86349,0.9199986457824707,116,,,,,,,,,
,86399,1.0276119709014893,116,,,,,,,,,
,86449,0.9027388691902161,116,,,,,,,,,
,86499,0.8605600595474243,116,,,,,,,,,
,86549,0.7794643044471741,116,,,,,,,,,
,86599,0.9132639169692993,116,,,,,,,,,
,86649,0.9065226316452026,116,,,,,,,,,
,86699,0.8850739002227783,116,,,,,,,,,
,86749,0.8902600407600403,116,,,,,,,,,
,86799,0.7989634871482849,116,,,,,,,,,
,86849,1.0017311573028564,116,,,,,,,,,
,86899,0.8397941589355469,116,,,,,,,,,
,86949,0.7920660972595215,116,,,,,,,,,
,86999,0.8989207148551941,116,,,,,,,,,
,87047,,116,0.9026840329170227,27.47944450378418,5.652842998504639,7.485822677612305,14.340779304504395,,,,
,87047,,116,,,,,,28.886507034301758,7.950261116027832,6.399296760559082,14.536948204040527
0.00013180956075507333,87048,,,,,,,,,,,
,87049,0.9293878078460693,117,,,,,,,,,
,87099,0.7632318139076233,117,,,,,,,,,
,87149,0.8583894371986389,117,,,,,,,,,
,87199,0.8806679844856262,117,,,,,,,,,
,87249,0.962945818901062,117,,,,,,,,,
,87299,0.725574791431427,117,,,,,,,,,
,87349,0.9957983493804932,117,,,,,,,,,
,87399,0.8128980398178101,117,,,,,,,,,
,87449,0.8420677781105042,117,,,,,,,,,
,87499,0.9567843079566956,117,,,,,,,,,
,87549,0.948172926902771,117,,,,,,,,,
,87599,0.9670178890228271,117,,,,,,,,,
,87649,0.9696978330612183,117,,,,,,,,,
,87699,0.841776967048645,117,,,,,,,,,
,87749,0.9829401969909668,117,,,,,,,,,
,87791,,117,0.9085816740989685,27.60839080810547,5.888551712036133,7.348557472229004,14.371282577514648,,,,
,87791,,117,,,,,,29.021221160888672,8.025835990905762,6.397709369659424,14.597676277160645
0.0001243408027311963,87792,,,,,,,,,,,
,87799,0.8696271181106567,118,,,,,,,,,
,87849,0.9985507726669312,118,,,,,,,,,
,87899,0.8256866931915283,118,,,,,,,,,
,87949,0.7759726643562317,118,,,,,,,,,
,87999,0.8703734874725342,118,,,,,,,,,
,88049,0.9663070440292358,118,,,,,,,,,
,88099,0.8152948617935181,118,,,,,,,,,
,88149,0.7461994886398315,118,,,,,,,,,
,88199,0.85618656873703,118,,,,,,,,,
,88249,0.8686731457710266,118,,,,,,,,,
,88299,0.9388157725334167,118,,,,,,,,,
,88349,0.7834830284118652,118,,,,,,,,,
,88399,1.0501971244812012,118,,,,,,,,,
,88449,0.6818751096725464,118,,,,,,,,,
,88499,1.0093046426773071,118,,,,,,,,,
,88535,,118,0.9061209559440613,27.766454696655273,6.0410685539245605,7.381834030151367,14.343551635742188,,,,
,88535,,118,,,,,,28.80790901184082,7.992137908935547,6.351624488830566,14.464146614074707
0.00011706145219117339,88536,,,,,,,,,,,
,88549,0.8780145645141602,119,,,,,,,,,
,88599,1.127584457397461,119,,,,,,,,,
,88649,0.8706024289131165,119,,,,,,,,,
,88699,0.8357905149459839,119,,,,,,,,,
,88749,0.9157130122184753,119,,,,,,,,,
,88799,0.8546497225761414,119,,,,,,,,,
,88849,0.8985317349433899,119,,,,,,,,,
,88899,0.9651604294776917,119,,,,,,,,,
,88949,0.9171801805496216,119,,,,,,,,,
,88999,0.7919135093688965,119,,,,,,,,,
,89049,0.759310245513916,119,,,,,,,,,
,89099,0.7856205701828003,119,,,,,,,,,
,89149,0.9373558163642883,119,,,,,,,,,
,89199,0.8853018283843994,119,,,,,,,,,
,89249,0.702717661857605,119,,,,,,,,,
,89279,,119,0.901229977607727,27.394866943359375,5.640364170074463,7.499688148498535,14.254815101623535,,,,
,89279,,119,,,,,,28.606430053710938,7.888069152832031,6.3473029136657715,14.371057510375977
0.00010997517450721906,89280,,,,,,,,,,,
,89299,0.917608380317688,120,,,,,,,,,
,89349,0.800801157951355,120,,,,,,,,,
,89399,0.8974077701568604,120,,,,,,,,,
,89449,0.8969144225120544,120,,,,,,,,,
,89499,1.0069496631622314,120,,,,,,,,,
,89549,0.9568338394165039,120,,,,,,,,,
,89599,0.8482064008712769,120,,,,,,,,,
,89649,0.9148532748222351,120,,,,,,,,,
,89699,0.8665788769721985,120,,,,,,,,,
,89749,0.7715588808059692,120,,,,,,,,,
,89799,0.7729266881942749,120,,,,,,,,,
,89849,0.7987324595451355,120,,,,,,,,,
,89899,0.7685099840164185,120,,,,,,,,,
,89949,0.8717209100723267,120,,,,,,,,,
,89999,0.8481259942054749,120,,,,,,,,,
,90023,,120,0.903751790523529,27.349111557006836,5.408815383911133,7.643886089324951,14.29641056060791,,,,
,90023,,120,,,,,,28.674701690673828,7.833276271820068,6.454235076904297,14.387189865112305
0.00010308553783355038,90024,,,,,,,,,,,
,90049,0.7562422752380371,121,,,,,,,,,
,90099,0.8301520347595215,121,,,,,,,,,
,90149,0.9249231219291687,121,,,,,,,,,
,90199,0.9024800062179565,121,,,,,,,,,
,90249,0.7877857089042664,121,,,,,,,,,
,90299,0.740439236164093,121,,,,,,,,,
,90349,0.965661883354187,121,,,,,,,,,
,90399,0.8705505132675171,121,,,,,,,,,
,90449,0.9206444621086121,121,,,,,,,,,
,90499,0.8224390745162964,121,,,,,,,,,
,90549,0.7943124771118164,121,,,,,,,,,
,90599,1.0340396165847778,121,,,,,,,,,
,90649,0.7940133810043335,121,,,,,,,,,
,90699,0.7353546023368835,121,,,,,,,,,
,90749,0.8179804086685181,121,,,,,,,,,
,90767,,121,0.9023168683052063,27.39625358581543,5.6306586265563965,7.499688148498535,14.265907287597656,,,,
,90767,,121,,,,,,28.360172271728516,7.6850433349609375,6.437992572784424,14.237135887145996
9.639601130971376e-05,90768,,,,,,,,,,,
,90799,0.8238282203674316,122,,,,,,,,,
,90849,0.9347331523895264,122,,,,,,,,,
,90899,0.7655240297317505,122,,,,,,,,,
,90949,0.8658042550086975,122,,,,,,,,,
,90999,0.8505728840827942,122,,,,,,,,,
,91049,1.0238380432128906,122,,,,,,,,,
,91099,0.822625994682312,122,,,,,,,,,
,91149,0.8763746023178101,122,,,,,,,,,
,91199,0.8479495048522949,122,,,,,,,,,
,91249,0.9523898363113403,122,,,,,,,,,
,91299,1.119889497756958,122,,,,,,,,,
,91349,0.83112633228302,122,,,,,,,,,
,91399,0.9563174247741699,122,,,,,,,,,
,91449,0.8116101622581482,122,,,,,,,,,
,91499,0.9573202133178711,122,,,,,,,,,
,91511,,122,0.9043418765068054,27.460033416748047,5.681960105895996,7.458092212677002,14.319981575012207,,,,
,91511,,122,,,,,,28.43037986755371,7.792333602905273,6.354681015014648,14.283366203308105
8.9909963313769e-05,91512,,,,,,,,,,,
,91549,0.9330412149429321,123,,,,,,,,,
,91599,0.985894501209259,123,,,,,,,,,
,91649,0.9954494833946228,123,,,,,,,,,
,91699,0.8362365961074829,123,,,,,,,,,
,91749,0.8637315034866333,123,,,,,,,,,
,91799,0.8847602605819702,123,,,,,,,,,
,91849,0.82533860206604,123,,,,,,,,,
,91899,0.9392997026443481,123,,,,,,,,,
,91949,0.8983018398284912,123,,,,,,,,,
,91999,0.9004383683204651,123,,,,,,,,,
,92049,0.8151859045028687,123,,,,,,,,,
,92099,0.9334624409675598,123,,,,,,,,,
,92149,0.8189830183982849,123,,,,,,,,,
,92199,0.9308261275291443,123,,,,,,,,,
,92249,1.055924892425537,123,,,,,,,,,
,92255,,123,0.9024921655654907,27.3879337310791,5.421294212341309,7.6272478103637695,14.33939266204834,,,,
,92255,,123,,,,,,28.28959083557129,7.678529262542725,6.3786396980285645,14.232420921325684
8.363065976620929e-05,92256,,,,,,,,,,,
,92299,0.801479697227478,124,,,,,,,,,
,92349,1.025869369506836,124,,,,,,,,,
,92399,0.7846211194992065,124,,,,,,,,,
,92449,0.9220395088195801,124,,,,,,,,,
,92499,0.7984689474105835,124,,,,,,,,,
,92549,0.8572856187820435,124,,,,,,,,,
,92599,0.872079074382782,124,,,,,,,,,
,92649,0.8691225647926331,124,,,,,,,,,
,92699,0.7898693084716797,124,,,,,,,,,
,92749,1.0050032138824463,124,,,,,,,,,
,92799,0.8566210269927979,124,,,,,,,,,
,92849,0.8553634881973267,124,,,,,,,,,
,92899,0.8324990272521973,124,,,,,,,,,
,92949,1.001265525817871,124,,,,,,,,,
,92999,0.8791031241416931,124,,,,,,,,,
,92999,,124,0.9039719104766846,27.344951629638672,5.374152660369873,7.613382816314697,14.357417106628418,,,,
,92999,,124,,,,,,28.304365158081055,7.713709354400635,6.438796043395996,14.151860237121582
7.756126248547204e-05,93000,,,,,,,,,,,
,93049,0.8427510857582092,125,,,,,,,,,
,93099,0.9611825942993164,125,,,,,,,,,
,93149,0.945418119430542,125,,,,,,,,,
,93199,0.9972416162490845,125,,,,,,,,,
,93249,0.8481444120407104,125,,,,,,,,,
,93299,0.9075084328651428,125,,,,,,,,,
,93349,0.8126914501190186,125,,,,,,,,,
,93399,0.9877976775169373,125,,,,,,,,,
,93449,0.8561751842498779,125,,,,,,,,,
,93499,0.8078304529190063,125,,,,,,,,,
,93549,0.8319839239120483,125,,,,,,,,,
,93599,0.9143526554107666,125,,,,,,,,,
,93649,1.0019643306732178,125,,,,,,,,,
,93699,1.0484046936035156,125,,,,,,,,,
,93743,,125,0.8989598751068115,27.354658126831055,5.659775733947754,7.516326427459717,14.178556442260742,,,,
,93743,,125,,,,,,28.30136489868164,7.734486103057861,6.394288539886475,14.172589302062988
7.170482759586784e-05,93744,,,,,,,,,,,
,93749,0.9035667777061462,126,,,,,,,,,
,93799,0.8660113215446472,126,,,,,,,,,
,93849,0.9394470453262329,126,,,,,,,,,
,93899,0.8066351413726807,126,,,,,,,,,
,93949,0.9265082478523254,126,,,,,,,,,
,93999,0.99242103099823,126,,,,,,,,,
,94049,0.9741848111152649,126,,,,,,,,,
,94099,0.915643572807312,126,,,,,,,,,
,94149,0.8013952970504761,126,,,,,,,,,
,94199,0.6981080770492554,126,,,,,,,,,
,94249,0.811620831489563,126,,,,,,,,,
,94299,0.8251948356628418,126,,,,,,,,,
,94349,0.8290481567382812,126,,,,,,,,,
,94399,0.9928289651870728,126,,,,,,,,,
,94449,0.9548274874687195,126,,,,,,,,,
,94487,,126,0.8994004726409912,27.22987174987793,5.5890631675720215,7.4567060470581055,14.184102058410645,,,,
,94487,,126,,,,,,28.290250778198242,7.778554439544678,6.45662260055542,14.055074691772461
6.606430398873014e-05,94488,,,,,,,,,,,
,94499,0.952286422252655,127,,,,,,,,,
,94549,0.8936671018600464,127,,,,,,,,,
,94599,0.7802044749259949,127,,,,,,,,,
,94649,0.8718253970146179,127,,,,,,,,,
,94699,0.9937409162521362,127,,,,,,,,,
,94749,1.012948751449585,127,,,,,,,,,
,94799,0.8971871733665466,127,,,,,,,,,
,94849,0.8999040126800537,127,,,,,,,,,
,94899,0.7987117767333984,127,,,,,,,,,
,94949,0.999333381652832,127,,,,,,,,,
,94999,0.8670058250427246,127,,,,,,,,,
,95049,0.9188183546066284,127,,,,,,,,,
,95099,0.9063485860824585,127,,,,,,,,,
,95149,0.8478342890739441,127,,,,,,,,,
,95199,0.8428851366043091,127,,,,,,,,,
,95231,,127,0.9005796313285828,27.283945083618164,5.699984550476074,7.374901294708252,14.209059715270996,,,,
,95231,,127,,,,,,28.336393356323242,7.755908966064453,6.422933101654053,14.157550811767578
6.064253183755934e-05,95232,,,,,,,,,,,
,95249,0.8437529802322388,128,,,,,,,,,
,95299,0.9167674779891968,128,,,,,,,,,
,95349,0.8936513662338257,128,,,,,,,,,
,95399,0.8720486164093018,128,,,,,,,,,
,95449,0.7521114349365234,128,,,,,,,,,
,95499,0.9472629427909851,128,,,,,,,,,
,95549,0.914902925491333,128,,,,,,,,,
,95599,0.7883785963058472,128,,,,,,,,,
,95649,0.7508038282394409,128,,,,,,,,,
,95699,0.6499887704849243,128,,,,,,,,,
,95749,0.9286093711853027,128,,,,,,,,,
,95799,0.9641563892364502,128,,,,,,,,,
,95849,0.8160368204116821,128,,,,,,,,,
,95899,0.7723342180252075,128,,,,,,,,,
,95949,0.9026479721069336,128,,,,,,,,,
,95975,,128,0.897617757320404,27.19936752319336,5.388017654418945,7.555149078369141,14.256200790405273,,,,
,95975,,128,,,,,,28.20807456970215,7.670345783233643,6.426932334899902,14.110796928405762
5.544224116791026e-05,95976,,,,,,,,,,,
,95999,0.8100401163101196,129,,,,,,,,,
,96049,0.826052188873291,129,,,,,,,,,
,96099,0.7305808067321777,129,,,,,,,,,
,96149,1.0205358266830444,129,,,,,,,,,
,96199,0.7983229756355286,129,,,,,,,,,
,96249,0.8577311038970947,129,,,,,,,,,
,96299,0.7881562113761902,129,,,,,,,,,
,96349,1.1012837886810303,129,,,,,,,,,
,96399,0.9201186299324036,129,,,,,,,,,
,96449,0.7237725853919983,129,,,,,,,,,
