lr-Adam,step,train/loss,epoch,val/loss,val/CER,val/IER,val/DER,val/SER,train/CER,train/IER,train/DER,train/SER,test/loss,test/CER,test/IER,test/DER,test/SER
1e-08,0,,,,,,,,,,,
,49,144.83370971679688,0,,,,,,,,,
,99,205.41525268554688,0,,,,,,,,,
,149,142.1106414794922,0,,,,,,,,,
,199,120.13655090332031,0,,,,,,,,,
,249,192.11074829101562,0,,,,,,,,,
,299,155.2818603515625,0,,,,,,,,,
,349,196.726318359375,0,,,,,,,,,
,399,128.4512481689453,0,,,,,,,,,
,449,175.02639770507812,0,,,,,,,,,
,499,132.2674102783203,0,,,,,,,,,
,549,183.75094604492188,0,,,,,,,,,
,599,195.06056213378906,0,,,,,,,,,
,649,206.6994171142578,0,,,,,,,,,
,699,237.9082489013672,0,,,,,,,,,
,743,,0,163.5673370361328,1905.9522705078125,0.015251723118126392,1827.2076416015625,78.7293930053711,,,,
,743,,0,,,,,,1908.044189453125,0.015470297075808048,1828.7105712890625,79.31814575195312
0.00011112,744,,,,,,,,,,,
,749,64.84757995605469,1,,,,,,,,,
,799,4.328729629516602,1,,,,,,,,,
,849,4.082904815673828,1,,,,,,,,,
,899,3.5365042686462402,1,,,,,,,,,
,949,3.5499463081359863,1,,,,,,,,,
,999,3.659238815307617,1,,,,,,,,,
,1049,3.59098744392395,1,,,,,,,,,
,1099,3.494814157485962,1,,,,,,,,,
,1149,3.475907802581787,1,,,,,,,,,
,1199,3.566964626312256,1,,,,,,,,,
,1249,3.462333917617798,1,,,,,,,,,
,1299,3.4824960231781006,1,,,,,,,,,
,1349,3.4241414070129395,1,,,,,,,,,
,1399,3.3333487510681152,1,,,,,,,,,
,1449,3.4712541103363037,1,,,,,,,,,
,1487,,1,3.411684274673462,100.0,100.0,0.0,0.0,,,,
,1487,,1,,,,,,105.2353515625,99.24675750732422,5.326408863067627,0.6621813178062439
0.00022223000000000002,1488,,,,,,,,,,,
,1499,3.757547378540039,2,,,,,,,,,
,1549,3.376185655593872,2,,,,,,,,,
,1599,3.359165668487549,2,,,,,,,,,
,1649,3.525982618331909,2,,,,,,,,,
,1699,3.258455276489258,2,,,,,,,,,
,1749,3.2585740089416504,2,,,,,,,,,
,1799,3.531083106994629,2,,,,,,,,,
,1849,3.302738666534424,2,,,,,,,,,
,1899,3.2574548721313477,2,,,,,,,,,
,1949,3.272784471511841,2,,,,,,,,,
,1999,3.2581048011779785,2,,,,,,,,,
,2049,3.270620346069336,2,,,,,,,,,
,2099,3.1703879833221436,2,,,,,,,,,
,2149,3.2440032958984375,2,,,,,,,,,
,2199,3.2027018070220947,2,,,,,,,,,
,2231,,2,3.219526767730713,100.0,100.0,0.0,0.0,,,,
,2231,,2,,,,,,100.0,100.0,0.0,0.0
0.00033334,2232,,,,,,,,,,,
,2249,3.15832257270813,3,,,,,,,,,
,2299,3.2391765117645264,3,,,,,,,,,
,2349,3.2063679695129395,3,,,,,,,,,
,2399,3.1763834953308105,3,,,,,,,,,
,2449,3.309558868408203,3,,,,,,,,,
,2499,3.2532706260681152,3,,,,,,,,,
,2549,3.303621768951416,3,,,,,,,,,
,2599,3.2193894386291504,3,,,,,,,,,
,2649,3.204318046569824,3,,,,,,,,,
,2699,3.159928321838379,3,,,,,,,,,
,2749,3.006958484649658,3,,,,,,,,,
,2799,3.2263636589050293,3,,,,,,,,,
,2849,3.1029558181762695,3,,,,,,,,,
,2899,3.312349796295166,3,,,,,,,,,
,2949,3.1122055053710938,3,,,,,,,,,
,2975,,3,3.1148927211761475,100.0,100.0,0.0,0.0,,,,
,2975,,3,,,,,,100.0,100.0,0.0,0.0
0.00044445,2976,,,,,,,,,,,
,2999,3.180695056915283,4,,,,,,,,,
,3049,3.042127847671509,4,,,,,,,,,
,3099,3.1290743350982666,4,,,,,,,,,
,3149,3.152621269226074,4,,,,,,,,,
,3199,3.0978848934173584,4,,,,,,,,,
,3249,2.9154539108276367,4,,,,,,,,,
,3299,3.110222578048706,4,,,,,,,,,
,3349,3.1258201599121094,4,,,,,,,,,
,3399,3.0261166095733643,4,,,,,,,,,
,3449,3.0003662109375,4,,,,,,,,,
,3499,3.0318329334259033,4,,,,,,,,,
,3549,3.2962396144866943,4,,,,,,,,,
,3599,3.0667335987091064,4,,,,,,,,,
,3649,3.344109058380127,4,,,,,,,,,
,3699,3.039206027984619,4,,,,,,,,,
,3719,,4,2.929201364517212,99.86827850341797,99.85857391357422,0.0,0.009705641306936741,,,,
,3719,,4,,,,,,99.9864501953125,99.98516082763672,0.0,0.0012901353184133768
0.00055556,3720,,,,,,,,,,,
,3749,3.0707693099975586,5,,,,,,,,,
,3799,3.0123610496520996,5,,,,,,,,,
,3849,2.9012298583984375,5,,,,,,,,,
,3899,2.955695629119873,5,,,,,,,,,
,3949,2.8565597534179688,5,,,,,,,,,
,3999,2.7882604598999023,5,,,,,,,,,
,4049,2.8938207626342773,5,,,,,,,,,
,4099,2.8551459312438965,5,,,,,,,,,
,4149,2.991593837738037,5,,,,,,,,,
,4199,2.912848472595215,5,,,,,,,,,
,4249,2.89260196685791,5,,,,,,,,,
,4299,2.8437142372131348,5,,,,,,,,,
,4349,2.8971915245056152,5,,,,,,,,,
,4399,2.8155598640441895,5,,,,,,,,,
,4449,2.664177894592285,5,,,,,,,,,
,4463,,5,2.6853225231170654,97.49178314208984,97.13128662109375,0.004159560892730951,0.35633569955825806,,,,
,4463,,5,,,,,,99.61502838134766,99.58792877197266,0.0,0.027105867862701416
0.00066667,4464,,,,,,,,,,,
,4499,2.6467666625976562,6,,,,,,,,,
,4549,3.319133996963501,6,,,,,,,,,
,4599,2.7342214584350586,6,,,,,,,,,
,4649,2.513446807861328,6,,,,,,,,,
,4699,2.506385326385498,6,,,,,,,,,
,4749,2.7883129119873047,6,,,,,,,,,
,4799,2.553771495819092,6,,,,,,,,,
,4849,2.658085823059082,6,,,,,,,,,
,4899,2.64568829536438,6,,,,,,,,,
,4949,2.461660385131836,6,,,,,,,,,
,4999,2.471585273742676,6,,,,,,,,,
,5049,2.5674428939819336,6,,,,,,,,,
,5099,2.6530349254608154,6,,,,,,,,,
,5149,2.552936553955078,6,,,,,,,,,
,5199,2.780442237854004,6,,,,,,,,,
,5207,,6,2.3572096824645996,97.09662628173828,96.89419555664062,0.00693260133266449,0.19549936056137085,,,,
,5207,,6,,,,,,98.30026245117188,98.14094543457031,0.0022530134301632643,0.1570672243833542
0.0007777799999999999,5208,,,,,,,,,,,
,5249,2.6291236877441406,7,,,,,,,,,
,5299,2.3957035541534424,7,,,,,,,,,
,5349,2.5497381687164307,7,,,,,,,,,
,5399,2.850269317626953,7,,,,,,,,,
,5449,2.559868574142456,7,,,,,,,,,
,5499,2.542630434036255,7,,,,,,,,,
,5549,2.346439838409424,7,,,,,,,,,
,5599,2.3843278884887695,7,,,,,,,,,
,5649,2.2802116870880127,7,,,,,,,,,
,5699,2.2839207649230957,7,,,,,,,,,
,5749,2.3055272102355957,7,,,,,,,,,
,5799,2.4615979194641113,7,,,,,,,,,
,5849,2.2419140338897705,7,,,,,,,,,
,5899,2.3488399982452393,7,,,,,,,,,
,5949,2.4140281677246094,7,,,,,,,,,
,5951,,7,2.2045645713806152,80.95752716064453,76.48738861083984,0.3646548390388489,4.1054863929748535,,,,
,5951,,7,,,,,,93.92436218261719,93.1147232055664,0.03672834113240242,0.7729060649871826
0.0008888899999999999,5952,,,,,,,,,,,
,5999,2.475605010986328,8,,,,,,,,,
,6049,2.3904953002929688,8,,,,,,,,,
,6099,2.6923904418945312,8,,,,,,,,,
,6149,2.2707228660583496,8,,,,,,,,,
,6199,2.3826632499694824,8,,,,,,,,,
,6249,2.487309217453003,8,,,,,,,,,
,6299,2.234078884124756,8,,,,,,,,,
,6349,2.226362466812134,8,,,,,,,,,
,6399,2.3313064575195312,8,,,,,,,,,
,6449,2.0091495513916016,8,,,,,,,,,
,6499,2.150632619857788,8,,,,,,,,,
,6549,2.3531088829040527,8,,,,,,,,,
,6599,2.0894627571105957,8,,,,,,,,,
,6649,1.9369280338287354,8,,,,,,,,,
,6695,,8,1.9722775220870972,66.14672088623047,53.07044982910156,1.6000443696975708,11.476227760314941,,,,
,6695,,8,,,,,,83.1001205444336,78.64411163330078,0.2800498306751251,4.175961494445801
0.001,6696,,,,,,,,,,,
,6748,2.02724552154541,9.0,,,,,,,,,
,6798,2.1616220474243164,9.0,,,,,,,,,
,6848,2.0976366996765137,9.0,,,,,,,,,
,6898,2.191699981689453,9.0,,,,,,,,,
,6948,2.2336392402648926,9.0,,,,,,,,,
,6998,2.177695035934448,9.0,,,,,,,,,
,7048,2.271674394607544,9.0,,,,,,,,,
,7098,2.173215866088867,9.0,,,,,,,,,
,7148,1.9286582469940183,9.0,,,,,,,,,
,7198,2.2127466201782227,9.0,,,,,,,,,
,7248,2.0776379108428955,9.0,,,,,,,,,
,7298,2.0433857440948486,9.0,,,,,,,,,
,7348,2.2343125343322754,9.0,,,,,,,,,
,7398,2.2126669883728027,9.0,,,,,,,,,
,7442,,9.0,1.97132670879364,66.32280731201172,53.286746978759766,1.5889521837234497,11.447111129760742,,,,
,7442,,9.0,,,,,,72.23597717285156,61.152793884277344,1.0465011596679688,10.036677360534668
0.00011112,7443,,,,,,,,,,,
,7448,2.3454861640930176,10.0,,,,,,,,,
,7498,1.7560784816741943,10.0,,,,,,,,,
,7548,2.0447514057159424,10.0,,,,,,,,,
,7598,1.9019334316253664,10.0,,,,,,,,,
,7648,2.042063474655152,10.0,,,,,,,,,
,7698,2.109761476516724,10.0,,,,,,,,,
,7748,1.8971402645111084,10.0,,,,,,,,,
,7798,1.7331269979476929,10.0,,,,,,,,,
,7848,1.940197467803955,10.0,,,,,,,,,
,7898,1.9445340633392332,10.0,,,,,,,,,
,7948,1.917362928390503,10.0,,,,,,,,,
,7998,2.1280951499938965,10.0,,,,,,,,,
,8048,1.9396836757659912,10.0,,,,,,,,,
,8098,1.974595069885254,10.0,,,,,,,,,
,8148,1.8754558563232424,10.0,,,,,,,,,
,8186,,10.0,1.6444125175476074,57.770751953125,42.59251403808594,2.255868434906006,12.922369003295898,,,,
,8186,,10.0,,,,,,69.01229095458984,58.57827377319336,1.0351008176803589,9.398921012878418
0.00022223,8187,,,,,,,,,,,
,8198,1.895102977752685,11.0,,,,,,,,,
,8248,1.779773831367493,11.0,,,,,,,,,
,8298,1.857749104499817,11.0,,,,,,,,,
,8348,2.0052270889282227,11.0,,,,,,,,,
,8398,1.7884888648986816,11.0,,,,,,,,,
,8448,1.878006219863892,11.0,,,,,,,,,
,8498,2.018237352371216,11.0,,,,,,,,,
,8548,1.82112979888916,11.0,,,,,,,,,
,8598,1.815171241760254,11.0,,,,,,,,,
,8648,1.753561019897461,11.0,,,,,,,,,
,8698,1.661341428756714,11.0,,,,,,,,,
,8748,1.7969300746917725,11.0,,,,,,,,,
,8798,1.7407488822937012,11.0,,,,,,,,,
,8848,1.7067960500717163,11.0,,,,,,,,,
,8898,1.7092483043670654,11.0,,,,,,,,,
,8930,,11.0,1.5645467042922974,53.2174186706543,35.31328582763672,2.6038849353790283,15.300251007080078,,,,
,8930,,11.0,,,,,,63.67543029785156,49.54677963256836,1.5484775304794312,12.580174446105955
0.00033334,8931,,,,,,,,,,,
,8948,1.6187514066696167,12.0,,,,,,,,,
,8998,1.643488883972168,12.0,,,,,,,,,
,9048,1.7912752628326416,12.0,,,,,,,,,
,9098,1.9159210920333865,12.0,,,,,,,,,
,9148,1.6657248735427856,12.0,,,,,,,,,
,9198,1.8360304832458496,12.0,,,,,,,,,
,9248,1.6662185192108154,12.0,,,,,,,,,
,9298,1.9437594413757324,12.0,,,,,,,,,
,9348,1.84400486946106,12.0,,,,,,,,,
,9398,2.067073345184326,12.0,,,,,,,,,
,9448,1.744920015335083,12.0,,,,,,,,,
,9498,1.6346769332885742,12.0,,,,,,,,,
,9548,1.5494967699050903,12.0,,,,,,,,,
,9598,1.7541311979293823,12.0,,,,,,,,,
,9648,1.480307936668396,12.0,,,,,,,,,
,9674,,12.0,1.5004472732543943,51.47040557861328,33.55517578125,2.935263395309448,14.979965209960938,,,,
,9674,,12.0,,,,,,58.43077087402344,40.88911056518555,2.1553125381469727,15.38634967803955
0.00044445,9675,,,,,,,,,,,
,9698,1.6061861515045166,13.0,,,,,,,,,
,9748,1.6618878841400146,13.0,,,,,,,,,
,9798,1.7581915855407717,13.0,,,,,,,,,
,9848,1.88204288482666,13.0,,,,,,,,,
,9898,1.6228309869766235,13.0,,,,,,,,,
,9948,1.5052179098129272,13.0,,,,,,,,,
,9998,1.7059712409973145,13.0,,,,,,,,,
,10048,1.783116102218628,13.0,,,,,,,,,
,10098,1.7224688529968262,13.0,,,,,,,,,
,10148,1.6921740770339966,13.0,,,,,,,,,
,10198,1.668410301208496,13.0,,,,,,,,,
,10248,2.2411203384399414,13.0,,,,,,,,,
,10298,1.640162467956543,13.0,,,,,,,,,
,10348,1.6751935482025146,13.0,,,,,,,,,
,10398,1.4431248903274536,13.0,,,,,,,,,
,10418,,13.0,1.42438542842865,47.04047393798828,25.62982749938965,3.832341909408569,17.578304290771484,,,,
,10418,,13.0,,,,,,54.12504577636719,33.78573989868164,2.730893850326538,17.60841178894043
0.00055556,10419,,,,,,,,,,,
,10448,1.522693753242493,14.0,,,,,,,,,
,10498,1.6965570449829102,14.0,,,,,,,,,
,10548,1.5001063346862793,14.0,,,,,,,,,
,10598,1.683925986289978,14.0,,,,,,,,,
,10648,1.4206874370574951,14.0,,,,,,,,,
,10698,1.5201075077056885,14.0,,,,,,,,,
,10748,1.5832159519195557,14.0,,,,,,,,,
,10798,1.5271039009094238,14.0,,,,,,,,,
,10848,1.528036117553711,14.0,,,,,,,,,
,10898,1.882939577102661,14.0,,,,,,,,,
,10948,1.607712745666504,14.0,,,,,,,,,
,10998,1.6575801372528076,14.0,,,,,,,,,
,11048,1.621348857879639,14.0,,,,,,,,,
,11098,1.3994920253753662,14.0,,,,,,,,,
,11148,1.5096640586853027,14.0,,,,,,,,,
,11162,,14.0,1.354594111442566,42.0129508972168,17.249698638916016,5.278482437133789,19.484769821166992,,,,
,11162,,14.0,,,,,,51.02486038208008,29.121706008911133,3.171386480331421,18.731767654418945
0.00066667,11163,,,,,,,,,,,
,11198,1.3794212341308594,15.0,,,,,,,,,
,11248,2.0628976821899414,15.0,,,,,,,,,
,11298,1.5622179508209229,15.0,,,,,,,,,
,11348,1.4866483211517334,15.0,,,,,,,,,
,11398,1.3101420402526855,15.0,,,,,,,,,
,11448,1.496183156967163,15.0,,,,,,,,,
,11498,1.3847668170928955,15.0,,,,,,,,,
,11548,1.5515682697296145,15.0,,,,,,,,,
,11598,1.556393027305603,15.0,,,,,,,,,
,11648,1.3666799068450928,15.0,,,,,,,,,
,11698,1.265556812286377,15.0,,,,,,,,,
,11748,1.4288219213485718,15.0,,,,,,,,,
,11798,1.54511559009552,15.0,,,,,,,,,
,11848,1.40613853931427,15.0,,,,,,,,,
,11898,1.78424072265625,15.0,,,,,,,,,
,11906,,15.0,1.2983571290969849,40.70962142944336,15.872883796691896,5.290961265563965,19.5457763671875,,,,
,11906,,15.0,,,,,,48.517032623291016,25.793785095214844,3.5420589447021484,19.181190490722656
0.0007777799999999,11907,,,,,,,,,,,
,11948,1.603445291519165,16.0,,,,,,,,,
,11998,1.221421718597412,16.0,,,,,,,,,
,12048,1.5605144500732422,16.0,,,,,,,,,
,12098,1.7194677591323853,16.0,,,,,,,,,
,12148,1.411402702331543,16.0,,,,,,,,,
,12198,1.439114332199097,16.0,,,,,,,,,
,12248,1.4506731033325195,16.0,,,,,,,,,
,12298,1.4145382642745972,16.0,,,,,,,,,
,12348,1.300533652305603,16.0,,,,,,,,,
,12398,1.2809679508209229,16.0,,,,,,,,,
,12448,1.450079321861267,16.0,,,,,,,,,
,12498,1.7842400074005127,16.0,,,,,,,,,
,12548,1.2773797512054443,16.0,,,,,,,,,
,12598,1.392125368118286,16.0,,,,,,,,,
,12648,1.6564269065856934,16.0,,,,,,,,,
,12650,,16.0,1.288834810256958,39.17612838745117,12.994467735290527,6.307280540466309,19.87438201904297,,,,
,12650,,16.0,,,,,,46.52836608886719,23.165918350219727,3.888693809509277,19.473752975463867
0.0008888899999999,12651,,,,,,,,,,,
,12698,1.6376399993896484,17.0,,,,,,,,,
,12748,1.5698752403259275,17.0,,,,,,,,,
,12798,1.8421114683151243,17.0,,,,,,,,,
,12848,1.3207745552062988,17.0,,,,,,,,,
,12898,1.611253023147583,17.0,,,,,,,,,
,12948,1.590162992477417,17.0,,,,,,,,,
,12998,1.2909462451934814,17.0,,,,,,,,,
,13048,1.474729299545288,17.0,,,,,,,,,
,13098,1.6424589157104492,17.0,,,,,,,,,
,13148,1.3366029262542725,17.0,,,,,,,,,
,13198,1.3606942892074585,17.0,,,,,,,,,
,13248,1.538702130317688,17.0,,,,,,,,,
,13298,1.393200397491455,17.0,,,,,,,,,
,13348,1.2065600156784058,17.0,,,,,,,,,
,13394,,17.0,1.2616592645645142,39.42986297607422,14.738710403442385,5.565492153167725,19.125659942626957,,,,
,13394,,17.0,,,,,,44.85400390625,21.00760078430176,4.157291412353516,19.689111709594727
0.001,13395,,,,,,,,,,,
,13398,1.3927288055419922,18.0,,,,,,,,,
,13448,1.3264648914337158,18.0,,,,,,,,,
,13498,1.60510516166687,18.0,,,,,,,,,
,13548,1.445937156677246,18.0,,,,,,,,,
,13598,1.3456462621688845,18.0,,,,,,,,,
,13648,1.4989128112792969,18.0,,,,,,,,,
,13698,1.2599389553070068,18.0,,,,,,,,,
,13748,1.467738389968872,18.0,,,,,,,,,
,13798,1.4765095710754397,18.0,,,,,,,,,
,13848,1.3541104793548584,18.0,,,,,,,,,
,13898,1.5327333211898804,18.0,,,,,,,,,
,13948,1.4970128536224363,18.0,,,,,,,,,
,13998,1.2517285346984863,18.0,,,,,,,,,
,14048,0.9659193754196168,18.0,,,,,,,,,
,14098,1.3311028480529783,18.0,,,,,,,,,
,14138,,18.0,1.2043439149856567,37.09912109375,12.455111503601074,5.950944900512695,18.693065643310547,,,,
,14138,,18.0,,,,,,43.23517990112305,19.111492156982425,4.414830207824707,19.7088565826416
0.001,14139,,,,,,,,,,,
,14148,1.2854048013687134,19.0,,,,,,,,,
,14198,1.5146628618240356,19.0,,,,,,,,,
,14248,1.2300879955291748,19.0,,,,,,,,,
,14298,1.340634822845459,19.0,,,,,,,,,
,14348,1.1420328617095947,19.0,,,,,,,,,
,14398,1.3071424961090088,19.0,,,,,,,,,
,14448,1.2013061046600342,19.0,,,,,,,,,
,14498,1.322777271270752,19.0,,,,,,,,,
,14548,1.3982700109481812,19.0,,,,,,,,,
,14598,1.191623330116272,19.0,,,,,,,,,
,14648,1.2531263828277588,19.0,,,,,,,,,
,14698,1.247608304023743,19.0,,,,,,,,,
,14748,1.467967510223389,19.0,,,,,,,,,
,14798,1.06515634059906,19.0,,,,,,,,,
,14848,1.3415791988372805,19.0,,,,,,,,,
,14882,,19.0,1.2109549045562744,39.04856872558594,16.17098617553711,4.977607727050781,17.89997673034668,,,,
,14882,,19.0,,,,,,41.28063201904297,17.346508026123047,4.701432228088379,19.232690811157227
0.0009998742433537,14883,,,,,,,,,,,
,14898,1.3426790237426758,20.0,,,,,,,,,
,14948,1.165538311004639,20.0,,,,,,,,,
,14998,1.226909041404724,20.0,,,,,,,,,
,15048,1.483838677406311,20.0,,,,,,,,,
,15098,1.2652533054351809,20.0,,,,,,,,,
,15148,1.124767541885376,20.0,,,,,,,,,
,15198,1.277508020401001,20.0,,,,,,,,,
,15248,1.3455898761749268,20.0,,,,,,,,,
,15298,1.305308818817139,20.0,,,,,,,,,
,15348,1.27927827835083,20.0,,,,,,,,,
,15398,1.4494324922561646,20.0,,,,,,,,,
,15448,1.607596755027771,20.0,,,,,,,,,
,15498,1.1355807781219482,20.0,,,,,,,,,
,15548,1.2265236377716064,20.0,,,,,,,,,
,15598,1.6758607625961304,20.0,,,,,,,,,
,15626,,20.0,1.1897187232971191,38.25963973999024,14.240949630737305,5.406042575836182,18.612648010253903,,,,
,15626,,20.0,,,,,,40.03078079223633,15.871411323547363,4.969555854797363,19.189815521240234
0.0009994970367373,15627,,,,,,,,,,,
,15648,1.5666100978851318,21.0,,,,,,,,,
,15698,1.3373332023620603,21.0,,,,,,,,,
,15748,1.1407268047332764,21.0,,,,,,,,,
,15798,1.1919807195663452,21.0,,,,,,,,,
,15848,1.3493748903274536,21.0,,,,,,,,,
,15898,1.0991384983062744,21.0,,,,,,,,,
,15948,1.5290977954864502,21.0,,,,,,,,,
,15998,1.392509937286377,21.0,,,,,,,,,
,16048,1.2585728168487549,21.0,,,,,,,,,
,16098,1.2510569095611572,21.0,,,,,,,,,
,16148,1.3953016996383667,21.0,,,,,,,,,
,16198,1.2376713752746582,21.0,,,,,,,,,
,16248,1.2766013145446775,21.0,,,,,,,,,
,16298,1.0939610004425049,21.0,,,,,,,,,
,16348,1.2024376392364502,21.0,,,,,,,,,
,16370,,21.0,1.1374139785766602,34.884849548339844,10.36701202392578,6.78978967666626,17.72804832458496,,,,
,16370,,21.0,,,,,,38.718788146972656,14.663772583007812,5.078670978546143,18.976343154907227
0.0009988685700857,16371,,,,,,,,,,,
,16398,1.0717016458511353,22.0,,,,,,,,,
,16448,1.2156033515930176,22.0,,,,,,,,,
,16498,1.2902898788452148,22.0,,,,,,,,,
,16548,1.1187869310379028,22.0,,,,,,,,,
,16598,0.9240788221359252,22.0,,,,,,,,,
,16648,1.2454514503479004,22.0,,,,,,,,,
,16698,1.1181323528289795,22.0,,,,,,,,,
,16748,1.0169267654418943,22.0,,,,,,,,,
,16798,1.1634814739227295,22.0,,,,,,,,,
,16848,1.409145712852478,22.0,,,,,,,,,
,16898,1.2118253707885742,22.0,,,,,,,,,
,16948,1.209445238113403,22.0,,,,,,,,,
,16998,1.436708688735962,22.0,,,,,,,,,
,17048,1.1080549955368042,22.0,,,,,,,,,
,17098,0.9747264981269836,22.0,,,,,,,,,
,17114,,22.0,1.0920655727386477,34.48137283325195,10.71086883544922,6.196359157562256,17.57414436340332,,,,
,17114,,22.0,,,,,,37.8831672668457,14.11844253540039,5.30061149597168,18.464113235473636
0.0009979891598506,17115,,,,,,,,,,,
,17148,1.4361456632614136,23.0,,,,,,,,,
,17198,1.1396390199661257,23.0,,,,,,,,,
,17248,0.998088240623474,23.0,,,,,,,,,
,17298,1.175689935684204,23.0,,,,,,,,,
,17348,1.1055569648742676,23.0,,,,,,,,,
,17398,1.3963932991027832,23.0,,,,,,,,,
,17448,1.2077276706695557,23.0,,,,,,,,,
,17498,0.985766589641571,23.0,,,,,,,,,
,17548,1.252462387084961,23.0,,,,,,,,,
,17598,0.973848044872284,23.0,,,,,,,,,
,17648,1.0009112358093262,23.0,,,,,,,,,
,17698,1.0749140977859497,23.0,,,,,,,,,
,17748,1.302417278289795,23.0,,,,,,,,,
,17798,0.9236449599266052,23.0,,,,,,,,,
,17848,1.3223931789398191,23.0,,,,,,,,,
,17858,,23.0,1.100847244262695,35.07896423339844,10.501503944396973,6.157536506652832,18.419921875,,,,
,17858,,23.0,,,,,,36.869895935058594,13.223094940185549,5.351661205291748,18.29513931274414
0.0009968592488416,17859,,,,,,,,,,,
,17898,1.279617190361023,24.0,,,,,,,,,
,17948,0.8609421849250793,24.0,,,,,,,,,
,17998,1.244837999343872,24.0,,,,,,,,,
,18048,0.8820719122886658,24.0,,,,,,,,,
,18098,1.1054736375808716,24.0,,,,,,,,,
,18148,1.305225133895874,24.0,,,,,,,,,
,18198,1.104301929473877,24.0,,,,,,,,,
,18248,1.369543433189392,24.0,,,,,,,,,
,18298,1.1548064947128296,24.0,,,,,,,,,
,18348,1.1262588500976562,24.0,,,,,,,,,
,18398,1.1592774391174316,24.0,,,,,,,,,
,18448,1.1967222690582275,24.0,,,,,,,,,
,18498,1.232425093650818,24.0,,,,,,,,,
,18548,1.074068307876587,24.0,,,,,,,,,
,18598,1.1051431894302368,24.0,,,,,,,,,
,18602,,24.0,1.035950779914856,32.142311096191406,8.685162544250488,6.5970635414123535,16.86008644104004,,,,
,18602,,24.0,,,,,,36.25787734985352,12.75132179260254,5.475474834442139,18.031082153320312
0.000995479406003,18603,,,,,,,,,,,
,18648,1.0119309425354004,25.0,,,,,,,,,
,18698,1.0334268808364868,25.0,,,,,,,,,
,18748,1.3037574291229248,25.0,,,,,,,,,
,18798,1.075281023979187,25.0,,,,,,,,,
,18848,1.2081830501556396,25.0,,,,,,,,,
,18898,1.2598780393600464,25.0,,,,,,,,,
,18948,1.32484233379364,25.0,,,,,,,,,
,18998,1.149200201034546,25.0,,,,,,,,,
,19048,0.8382394909858704,25.0,,,,,,,,,
,19098,1.1700094938278198,25.0,,,,,,,,,
,19148,1.3802809715270996,25.0,,,,,,,,,
,19198,1.331935167312622,25.0,,,,,,,,,
,19248,1.098369598388672,25.0,,,,,,,,,
,19298,1.114516019821167,25.0,,,,,,,,,
,19346,,25.0,1.02747905254364,32.138153076171875,8.532645225524902,6.949239730834961,16.656267166137695,,,,
,19346,,25.0,,,,,,35.61942672729492,12.252922058105469,5.599781036376953,17.766721725463867
0.0009938503261272,19347,,,,,,,,,,,
,19348,1.155372142791748,26.0,,,,,,,,,
,19398,1.1767971515655518,26.0,,,,,,,,,
,19448,1.2945228815078735,26.0,,,,,,,,,
,19498,1.1474461555480957,26.0,,,,,,,,,
,19548,1.3139545917510986,26.0,,,,,,,,,
,19598,1.0072054862976074,26.0,,,,,,,,,
,19648,1.2000800371170044,26.0,,,,,,,,,
,19698,0.9762287139892578,26.0,,,,,,,,,
,19748,1.1666444540023804,26.0,,,,,,,,,
,19798,1.029069423675537,26.0,,,,,,,,,
,19848,1.3079442977905271,26.0,,,,,,,,,
,19898,0.9856539368629456,26.0,,,,,,,,,
,19948,1.0751063823699951,26.0,,,,,,,,,
,19998,0.8775323629379272,26.0,,,,,,,,,
,20048,1.0822041034698486,26.0,,,,,,,,,
,20090,,26.0,1.067206621170044,34.04323196411133,12.09877586364746,5.601541996002197,16.342914581298828,,,,
,20090,,26.0,,,,,,34.97571563720703,11.65158462524414,5.752100944519043,17.572031021118164
0.000991972829505,20091,,,,,,,,,,,
,20098,1.1915297508239746,27.0,,,,,,,,,
,20148,1.3027235269546509,27.0,,,,,,,,,
,20198,1.097190022468567,27.0,,,,,,,,,
,20248,1.1465277671813965,27.0,,,,,,,,,
,20298,1.046314358711243,27.0,,,,,,,,,
,20348,1.009746789932251,27.0,,,,,,,,,
,20398,1.0627310276031494,27.0,,,,,,,,,
,20448,1.2510652542114258,27.0,,,,,,,,,
,20498,1.0773483514785769,27.0,,,,,,,,,
,20548,1.084985852241516,27.0,,,,,,,,,
,20598,1.0175178050994873,27.0,,,,,,,,,
,20648,1.3337167501449585,27.0,,,,,,,,,
,20698,1.071199655532837,27.0,,,,,,,,,
,20748,1.0672056674957275,27.0,,,,,,,,,
,20798,1.0835061073303225,27.0,,,,,,,,,
,20834,,27.0,1.083398938179016,34.61725234985352,12.93346118927002,5.38385820388794,16.2999324798584,,,,
,20834,,27.0,,,,,,34.678672790527344,11.55859088897705,5.6747212409973145,17.44536018371582
0.0009898478615124,20835,,,,,,,,,,,
,20848,1.104663610458374,28.0,,,,,,,,,
,20898,0.8864260911941528,28.0,,,,,,,,,
,20948,1.0963119268417358,28.0,,,,,,,,,
,20998,1.0655375719070437,28.0,,,,,,,,,
,21048,1.097691297531128,28.0,,,,,,,,,
,21098,1.0373941659927368,28.0,,,,,,,,,
,21148,0.953969180583954,28.0,,,,,,,,,
,21198,1.0303304195404053,28.0,,,,,,,,,
,21248,1.1254510879516602,28.0,,,,,,,,,
,21298,1.1087543964385986,28.0,,,,,,,,,
,21348,1.1151772737503052,28.0,,,,,,,,,
,21398,1.0689483880996704,28.0,,,,,,,,,
,21448,1.3564192056655884,28.0,,,,,,,,,
,21498,1.1134538650512695,28.0,,,,,,,,,
,21548,1.0608872175216677,28.0,,,,,,,,,
,21578,,28.0,1.0108224153518677,31.43934631347656,8.452227592468262,6.7038254737854,16.283294677734375,,,,
,21578,,28.0,,,,,,33.80577850341797,10.886771202087402,5.851675510406494,17.067333221435547
0.0009874764921348,21579,,,,,,,,,,,
,21598,1.0424360036849976,29.0,,,,,,,,,
,21648,0.9584442377090454,29.0,,,,,,,,,
,21698,1.01844322681427,29.0,,,,,,,,,
,21748,1.1370024681091309,29.0,,,,,,,,,
,21798,1.054173469543457,29.0,,,,,,,,,
,21848,0.9676356315612792,29.0,,,,,,,,,
,21898,1.027721285820007,29.0,,,,,,,,,
,21948,0.9846131205558776,29.0,,,,,,,,,
,21998,1.0221614837646484,29.0,,,,,,,,,
,22048,1.0684771537780762,29.0,,,,,,,,,
,22098,1.019133448600769,29.0,,,,,,,,,
,22148,1.1359704732894895,29.0,,,,,,,,,
,22198,1.270442008972168,29.0,,,,,,,,,
,22248,1.1603410243988037,29.0,,,,,,,,,
,22298,1.0492994785308838,29.0,,,,,,,,,
,22322,,29.0,1.0262749195098877,31.53363037109375,7.244568347930908,7.320827007293701,16.96823501586914,,,,
,22322,,29.0,,,,,,33.60794448852539,10.830987930297852,5.799071311950684,16.977886199951172
0.0009848599154281,22323,,,,,,,,,,,
,22348,1.0590541362762451,30.0,,,,,,,,,
,22398,1.0681017637252808,30.0,,,,,,,,,
,22448,0.9694958925247192,30.0,,,,,,,,,
,22498,1.1801040172576904,30.0,,,,,,,,,
,22548,1.042574405670166,30.0,,,,,,,,,
,22598,0.8296971321105957,30.0,,,,,,,,,
,22648,1.1838557720184326,30.0,,,,,,,,,
,22698,0.9430902004241944,30.0,,,,,,,,,
,22748,1.1662472486495972,30.0,,,,,,,,,
,22798,1.0130383968353271,30.0,,,,,,,,,
,22848,1.1227824687957764,30.0,,,,,,,,,
,22898,1.0226399898529053,30.0,,,,,,,,,
,22948,1.0586904287338257,30.0,,,,,,,,,
,22998,1.1543208360671997,30.0,,,,,,,,,
,23048,1.0943031311035156,30.0,,,,,,,,,
,23066,,30.0,0.9960575103759766,31.09964942932129,8.29000473022461,6.763445854187012,16.046199798583984,,,,
,23066,,30.0,,,,,,33.15376281738281,10.385546684265137,5.944464683532715,16.82375144958496
0.0009819994489175,23067,,,,,,,,,,,
,23098,0.9291091561317444,31.0,,,,,,,,,
,23148,1.250934362411499,31.0,,,,,,,,,
,23198,1.0511102676391602,31.0,,,,,,,,,
,23248,0.8269782066345215,31.0,,,,,,,,,
,23298,0.8758267760276794,31.0,,,,,,,,,
,23348,1.1258076429367063,31.0,,,,,,,,,
,23398,1.021994948387146,31.0,,,,,,,,,
,23448,1.0393041372299194,31.0,,,,,,,,,
,23498,0.9678188562393188,31.0,,,,,,,,,
,23548,1.002307653427124,31.0,,,,,,,,,
,23598,1.1090600490570068,31.0,,,,,,,,,
,23648,0.9531837701797484,31.0,,,,,,,,,
,23698,1.1212437152862549,31.0,,,,,,,,,
,23748,1.0840442180633545,31.0,,,,,,,,,
,23798,1.0600996017456057,31.0,,,,,,,,,
,23810,,31.0,0.9978044629096984,31.40191078186035,8.937509536743164,6.573492527008057,15.890908241271973,,,,
,23810,,31.0,,,,,,32.652931213378906,10.008074760437012,6.049350738525391,16.595504760742188
0.0009788965329341,23811,,,,,,,,,,,
,23848,0.9045915603637696,32.0,,,,,,,,,
,23898,0.8932086229324341,32.0,,,,,,,,,
,23948,1.1447954177856443,32.0,,,,,,,,,
,23998,1.1387977600097656,32.0,,,,,,,,,
,24048,1.1339545249938965,32.0,,,,,,,,,
,24098,1.030211329460144,32.0,,,,,,,,,
,24148,1.041813850402832,32.0,,,,,,,,,
,24198,1.031428337097168,32.0,,,,,,,,,
,24248,1.040353536605835,32.0,,,,,,,,,
,24298,1.0318434238433838,32.0,,,,,,,,,
,24348,1.0071622133255005,32.0,,,,,,,,,
,24398,1.003642201423645,32.0,,,,,,,,,
,24448,0.9827218651771544,32.0,,,,,,,,,
,24498,1.1571509838104248,32.0,,,,,,,,,
,24548,1.013608694076538,32.0,,,,,,,,,
,24554,,32.0,0.999480128288269,29.99597930908203,5.787335395812988,7.86434268951416,16.344301223754883,,,,
,24554,,32.0,,,,,,32.34740447998047,9.900158882141112,5.964305400848389,16.482942581176758
0.0009755527298894,24555,,,,,,,,,,,
,24598,0.8463318347930908,33.0,,,,,,,,,
,24648,1.1465883255004885,33.0,,,,,,,,,
,24698,0.8929762840270996,33.0,,,,,,,,,
,24748,1.1130846738815308,33.0,,,,,,,,,
,24798,1.1565027236938477,33.0,,,,,,,,,
,24848,0.994053602218628,33.0,,,,,,,,,
,24898,1.12225604057312,33.0,,,,,,,,,
,24948,0.8950724005699158,33.0,,,,,,,,,
,24998,1.0772353410720823,33.0,,,,,,,,,
,25048,1.235055685043335,33.0,,,,,,,,,
,25098,0.8979783058166504,33.0,,,,,,,,,
,25148,0.9487046003341676,33.0,,,,,,,,,
,25198,1.1885532140731812,33.0,,,,,,,,,
,25248,0.9644176959991456,33.0,,,,,,,,,
,25298,1.0193846225738523,33.0,,,,,,,,,
,25298,,33.0,0.975525975227356,29.58695602416992,5.939852714538574,7.856023788452148,15.7910795211792,,,,
,25298,,33.0,,,,,,31.74850845336914,9.539185523986816,6.015861988067627,16.19346046447754
0.000971969723489,25299,,,,,,,,,,,
,25348,1.076345920562744,34.0,,,,,,,,,
,25398,0.7723160982131958,34.0,,,,,,,,,
,25448,0.9312872886657716,34.0,,,,,,,,,
,25498,0.9928142428398132,34.0,,,,,,,,,
,25548,1.0160224437713623,34.0,,,,,,,,,
,25598,0.919431746006012,34.0,,,,,,,,,
,25648,1.024848461151123,34.0,,,,,,,,,
,25698,1.044219970703125,34.0,,,,,,,,,
,25748,1.0193681716918943,34.0,,,,,,,,,
,25798,0.954015016555786,34.0,,,,,,,,,
,25848,0.9194002151489258,34.0,,,,,,,,,
,25898,0.8472101092338562,34.0,,,,,,,,,
,25948,1.098365306854248,34.0,,,,,,,,,
,25998,0.9766291379928588,34.0,,,,,,,,,
,26042,,34.0,0.9714305400848388,30.138790130615234,6.849410057067871,7.494142055511475,15.795238494873049,,,,
,26042,,34.0,,,,,,31.27439308166504,9.206306457519531,6.029019832611084,16.039066314697266
0.0009681493178845,26043,,,,,,,,,,,
,26048,0.8625638484954834,35.0,,,,,,,,,
,26098,1.116391897201538,35.0,,,,,,,,,
,26148,1.0758938789367676,35.0,,,,,,,,,
,26198,0.92498379945755,35.0,,,,,,,,,
,26248,1.1639604568481443,35.0,,,,,,,,,
,26298,0.8126711249351501,35.0,,,,,,,,,
,26348,0.8218847513198853,35.0,,,,,,,,,
,26398,0.9694219827651978,35.0,,,,,,,,,
,26448,0.9703997373580932,35.0,,,,,,,,,
,26498,0.8716863393783569,35.0,,,,,,,,,
,26548,1.1089856624603271,35.0,,,,,,,,,
,26598,0.8114495873451233,35.0,,,,,,,,,
,26648,1.0997090339660645,35.0,,,,,,,,,
,26698,0.9969678521156312,35.0,,,,,,,,,
,26748,0.9324123859405518,35.0,,,,,,,,,
,26786,,35.0,0.9634681344032288,29.631324768066406,6.964491367340088,7.409564018249512,15.257268905639648,,,,
,26786,,35.0,,,,,,31.04630470275879,9.161004066467283,6.112598419189453,15.77270221710205
0.0009640934367652,26787,,,,,,,,,,,
,26798,0.8935041427612305,36.0,,,,,,,,,
,26848,0.9027283191680908,36.0,,,,,,,,,
,26898,1.1033157110214231,36.0,,,,,,,,,
,26948,0.9013718366622924,36.0,,,,,,,,,
,26998,0.8741847276687622,36.0,,,,,,,,,
,27048,0.8529742956161499,36.0,,,,,,,,,
,27098,1.2202460765838623,36.0,,,,,,,,,
,27148,1.0937474966049194,36.0,,,,,,,,,
,27198,0.9170078039169312,36.0,,,,,,,,,
,27248,0.9938095808029176,36.0,,,,,,,,,
,27298,1.0149083137512207,36.0,,,,,,,,,
,27348,0.9821635484695436,36.0,,,,,,,,,
,27398,1.1738760471343994,36.0,,,,,,,,,
,27448,0.851574182510376,36.0,,,,,,,,,
,27498,0.9690669775009156,36.0,,,,,,,,,
,27530,,36.0,0.9361556172370912,28.99907112121582,6.258752346038818,7.40679121017456,15.33352756500244,,,,
,27530,,36.0,,,,,,30.968168258666992,8.88731575012207,6.149216175079346,15.931635856628418
0.0009598041223894,27531,,,,,,,,,,,
,27548,1.009164333343506,37.0,,,,,,,,,
,27598,0.7611356377601624,37.0,,,,,,,,,
,27648,0.9897115230560304,37.0,,,,,,,,,
,27698,0.8435992002487183,37.0,,,,,,,,,
,27748,0.9529322385787964,37.0,,,,,,,,,
,27798,0.9318866729736328,37.0,,,,,,,,,
,27848,1.4074735641479492,37.0,,,,,,,,,
,27898,1.1181244850158691,37.0,,,,,,,,,
,27948,0.8842151165008545,37.0,,,,,,,,,
,27998,0.9583650827407836,37.0,,,,,,,,,
,28048,1.2598975896835327,37.0,,,,,,,,,
,28098,1.0299646854400637,37.0,,,,,,,,,
,28148,0.9144657254219056,37.0,,,,,,,,,
,28198,0.8674180507659912,37.0,,,,,,,,,
,28248,1.031022548675537,37.0,,,,,,,,,
,28274,,37.0,0.9303162097930908,28.0964469909668,5.564105987548828,7.577332973480225,14.955007553100586,,,,
,28274,,37.0,,,,,,30.267799377441406,8.443748474121094,6.2325439453125,15.591506958007812
0.000955283534556,28275,,,,,,,,,,,
,28298,0.8684824705123901,38.0,,,,,,,,,
,28348,0.8729254007339478,38.0,,,,,,,,,
,28398,0.8902900218963623,38.0,,,,,,,,,
,28448,1.1293978691101074,38.0,,,,,,,,,
,28498,0.9326257109642028,38.0,,,,,,,,,
,28548,0.902348518371582,38.0,,,,,,,,,
,28598,1.011711359024048,38.0,,,,,,,,,
,28648,1.0546462535858154,38.0,,,,,,,,,
,28698,0.7970660924911499,38.0,,,,,,,,,
,28748,0.8590248227119446,38.0,,,,,,,,,
,28798,0.9271863102912904,38.0,,,,,,,,,
,28848,1.045485496520996,38.0,,,,,,,,,
,28898,0.8481238484382629,38.0,,,,,,,,,
,28948,1.0279884338378906,38.0,,,,,,,,,
,28998,0.7879232168197632,38.0,,,,,,,,,
,29018,,38.0,0.92532217502594,28.541519165039062,6.451478958129883,7.322213649749756,14.767827033996582,,,,
,29018,,38.0,,,,,,30.081069946289062,8.327269554138184,6.247705936431885,15.506094932556152
0.0009505339495172,29019,,,,,,,,,,,
,29048,0.7949576377868652,39.0,,,,,,,,,
,29098,0.7788662910461426,39.0,,,,,,,,,
,29148,1.1359305381774902,39.0,,,,,,,,,
,29198,1.0492950677871704,39.0,,,,,,,,,
,29248,0.7407365441322327,39.0,,,,,,,,,
,29298,0.8990784883499146,39.0,,,,,,,,,
,29348,0.9145251512527466,39.0,,,,,,,,,
,29398,0.7799460887908936,39.0,,,,,,,,,
,29448,0.896268367767334,39.0,,,,,,,,,
,29498,1.140635967254639,39.0,,,,,,,,,
,29548,0.8512532114982605,39.0,,,,,,,,,
,29598,1.064329981803894,39.0,,,,,,,,,
,29648,1.230967402458191,39.0,,,,,,,,,
,29698,1.04264497756958,39.0,,,,,,,,,
,29748,0.7795684337615967,39.0,,,,,,,,,
,29762,,39.0,0.9277109503746032,28.735631942749023,6.727396488189697,7.123940944671631,14.884294509887695,,,,
,29762,,39.0,,,,,,29.65257453918457,8.281062126159668,6.257397174835205,15.114115715026855
0.000945557758832,29763,,,,,,,,,,,
,29847,0.9495252370834352,40.0,,,,,,,,,,,,,,
,29897,0.886783242225647,40.0,,,,,,,,,,,,,,
,29947,0.904987931251526,40.0,,,,,,,,,,,,,,
,29997,0.8733333945274353,40.0,,,,,,,,,,,,,,
,30047,0.92295104265213,40.0,,,,,,,,,,,,,,
,30097,0.9153241515159608,40.0,,,,,,,,,,,,,,
,30147,1.0983672142028809,40.0,,,,,,,,,,,,,,
,30197,0.8928918838500977,40.0,,,,,,,,,,,,,,
,30247,0.8620469570159912,40.0,,,,,,,,,,,,,,
,30297,0.8851968050003052,40.0,,,,,,,,,,,,,,
,30347,0.8643518686294556,40.0,,,,,,,,,,,,,,
,30397,0.9144201278686525,40.0,,,,,,,,,,,,,,
,30447,0.8401086926460266,40.0,,,,,,,,,,,,,,
,30497,0.9139033555984496,40.0,,,,,,,,,,,,,,
,30541,,40.0,0.9311158657073976,28.095060348510746,5.580743789672852,7.623088359832764,14.891227722167969,,,,,,,,,
,30541,,40.0,,,,,,28.780553817749023,7.4025373458862305,6.482054233551025,14.895962715148926,,,,,
0.00011112,30542,,,,,,,,,,,,,,,,
,30547,0.9082634449005128,41.0,,,,,,,,,,,,,,
,30597,0.6959238052368164,41.0,,,,,,,,,,,,,,
,30647,0.9193878769874572,41.0,,,,,,,,,,,,,,
,30697,0.8163630962371826,41.0,,,,,,,,,,,,,,
,30747,0.8882461786270142,41.0,,,,,,,,,,,,,,
,30797,0.891211748123169,41.0,,,,,,,,,,,,,,
,30847,0.8213828206062317,41.0,,,,,,,,,,,,,,
,30897,0.7539858222007751,41.0,,,,,,,,,,,,,,
,30947,0.9580055475234984,41.0,,,,,,,,,,,,,,
,30997,0.8862317800521851,41.0,,,,,,,,,,,,,,
,31047,0.7764208316802979,41.0,,,,,,,,,,,,,,
,31097,0.9427425861358644,41.0,,,,,,,,,,,,,,
,31147,0.8692260980606079,41.0,,,,,,,,,,,,,,
,31197,0.8200252056121826,41.0,,,,,,,,,,,,,,
,31247,0.8293110728263855,41.0,,,,,,,,,,,,,,
,31285,,41.0,0.8480047583580017,25.98477554321289,5.300666809082031,7.374901294708252,13.309207916259766,,,,,,,,,
,31285,,41.0,,,,,,26.586355209350582,6.963843822479248,6.321933269500732,13.300578117370604,,,,,
0.00022223,31286,,,,,,,,,,,,,,,,
,31297,0.8357935547828674,42.0,,,,,,,,,,,,,,
,31347,0.7680841684341431,42.0,,,,,,,,,,,,,,
,31397,0.7524660229682922,42.0,,,,,,,,,,,,,,
,31447,1.028805136680603,42.0,,,,,,,,,,,,,,
,31497,0.7711558938026428,42.0,,,,,,,,,,,,,,
,31547,0.8559072017669678,42.0,,,,,,,,,,,,,,
,31597,0.9322301149368286,42.0,,,,,,,,,,,,,,
,31647,0.8386543989181519,42.0,,,,,,,,,,,,,,
,31697,0.7617194652557373,42.0,,,,,,,,,,,,,,
,31747,0.7779375314712524,42.0,,,,,,,,,,,,,,
,31797,0.6835759878158569,42.0,,,,,,,,,,,,,,
,31847,0.8902767896652222,42.0,,,,,,,,,,,,,,
,31897,0.796133279800415,42.0,,,,,,,,,,,,,,
,31947,0.6890177726745605,42.0,,,,,,,,,,,,,,
,31997,0.7143000364303589,42.0,,,,,,,,,,,,,,
,32029,,42.0,0.8479189276695251,25.86969566345215,5.2729363441467285,7.343011379241943,13.25374698638916,,,,,,,,,
,32029,,42.0,,,,,,26.081907272338867,6.689911842346191,6.468608856201172,12.923386573791504,,,,,
0.00033334,32030,,,,,,,,,,,,,,,,
,32047,0.7407084703445435,43.0,,,,,,,,,,,,,,
,32097,0.7218242883682251,43.0,,,,,,,,,,,,,,
,32147,0.7514885663986206,43.0,,,,,,,,,,,,,,
,32197,0.7461980581283569,43.0,,,,,,,,,,,,,,
,32247,0.6481161117553711,43.0,,,,,,,,,,,,,,
,32297,0.851060152053833,43.0,,,,,,,,,,,,,,
,32347,0.7717190980911255,43.0,,,,,,,,,,,,,,
,32397,0.9333469271659852,43.0,,,,,,,,,,,,,,
,32447,0.9362711310386658,43.0,,,,,,,,,,,,,,
,32497,0.9744386672973632,43.0,,,,,,,,,,,,,,
,32547,0.9404207468032836,43.0,,,,,,,,,,,,,,
,32597,0.8161356449127197,43.0,,,,,,,,,,,,,,
,32647,0.8844273686408997,43.0,,,,,,,,,,,,,,
,32697,0.7938423156738281,43.0,,,,,,,,,,,,,,
,32747,0.7779358625411987,43.0,,,,,,,,,,,,,,
,32773,,43.0,0.8587168455123901,26.46312522888184,5.681960105895996,7.263979434967041,13.517186164855955,,,,,,,,,
,32773,,43.0,,,,,,26.038610458374023,6.716151237487793,6.448226451873779,12.87423324584961,,,,,
0.00044445,32774,,,,,,,,,,,,,,,,
,32797,0.6870311498641968,44.0,,,,,,,,,,,,,,
,32847,0.7286213636398315,44.0,,,,,,,,,,,,,,
,32897,1.0232906341552734,44.0,,,,,,,,,,,,,,
,32947,0.9112749695777892,44.0,,,,,,,,,,,,,,
,32997,0.7785602807998657,44.0,,,,,,,,,,,,,,
,33047,0.7326353788375854,44.0,,,,,,,,,,,,,,
,33097,0.905732274055481,44.0,,,,,,,,,,,,,,
,33147,0.8486323356628418,44.0,,,,,,,,,,,,,,
,33197,0.7972174882888794,44.0,,,,,,,,,,,,,,
,33247,0.844455897808075,44.0,,,,,,,,,,,,,,
,33297,0.9912656545639038,44.0,,,,,,,,,,,,,,
,33347,0.9957916736602784,44.0,,,,,,,,,,,,,,
,33397,0.8162596225738525,44.0,,,,,,,,,,,,,,
,33447,0.6698029041290283,44.0,,,,,,,,,,,,,,
,33497,0.7558878660202026,44.0,,,,,,,,,,,,,,
,33517,,44.0,0.8529417514801025,26.122041702270508,5.991154193878174,6.953399181365967,13.177488327026367,,,,,,,,,
,33517,,44.0,,,,,,26.314889907836918,6.742247104644775,6.4551920890808105,13.117450714111328,,,,,
0.00055556,33518,,,,,,,,,,,,,,,,
,33547,0.7353025674819946,45.0,,,,,,,,,,,,,,
,33597,0.8955116271972656,45.0,,,,,,,,,,,,,,
,33647,0.8356128931045532,45.0,,,,,,,,,,,,,,
,33697,0.8193889260292053,45.0,,,,,,,,,,,,,,
,33747,0.7136346697807312,45.0,,,,,,,,,,,,,,
,33797,0.7205349206924438,45.0,,,,,,,,,,,,,,
,33847,0.8166654109954834,45.0,,,,,,,,,,,,,,
,33897,0.8868592977523804,45.0,,,,,,,,,,,,,,
,33947,0.8816763758659363,45.0,,,,,,,,,,,,,,
,33997,0.9521788358688354,45.0,,,,,,,,,,,,,,
,34047,0.9934330582618712,45.0,,,,,,,,,,,,,,
,34097,0.971445083618164,45.0,,,,,,,,,,,,,,
,34147,1.0252878665924072,45.0,,,,,,,,,,,,,,
,34197,0.8458326458930969,45.0,,,,,,,,,,,,,,
,34247,0.8107291460037231,45.0,,,,,,,,,,,,,,
,34261,,45.0,0.8741500973701477,26.3591365814209,5.045547008514404,7.682708740234375,13.63088035583496,,,,,,,,,
,34261,,45.0,,,,,,26.79447364807129,7.019774436950684,6.397630214691162,13.377068519592283,,,,,
0.00066667,34262,,,,,,,,,,,,,,,,
,34297,0.8946289420127869,46.0,,,,,,,,,,,,,,
,34347,1.2059752941131592,46.0,,,,,,,,,,,,,,
,34397,0.7396441698074341,46.0,,,,,,,,,,,,,,
,34447,0.8606611490249634,46.0,,,,,,,,,,,,,,
,34497,0.7194538116455078,46.0,,,,,,,,,,,,,,
,34547,0.8548654317855835,46.0,,,,,,,,,,,,,,
,34597,0.8970710039138794,46.0,,,,,,,,,,,,,,
,34647,0.9640098810195924,46.0,,,,,,,,,,,,,,
,34697,0.9038033485412598,46.0,,,,,,,,,,,,,,
,34747,0.7614008784294128,46.0,,,,,,,,,,,,,,
,34797,0.7538209557533264,46.0,,,,,,,,,,,,,,
,34847,0.7347149848937988,46.0,,,,,,,,,,,,,,
,34897,0.921669602394104,46.0,,,,,,,,,,,,,,
,34947,0.8153525590896606,46.0,,,,,,,,,,,,,,
,34997,1.04103684425354,46.0,,,,,,,,,,,,,,
,35005,,46.0,0.8861693143844604,26.651691436767575,5.216089248657227,7.469184398651123,13.966418266296388,,,,,,,,,
,35005,,46.0,,,,,,27.140443801879883,7.056437969207764,6.384396076202393,13.69960880279541,,,,,
0.0007777799999999,35006,,,,,,,,,,,,,,,,
,35047,0.8497591018676758,47.0,,,,,,,,,,,,,,
,35097,0.7931525707244873,47.0,,,,,,,,,,,,,,
,35147,0.8685526251792908,47.0,,,,,,,,,,,,,,
,35197,0.806460976600647,47.0,,,,,,,,,,,,,,
,35247,0.797333300113678,47.0,,,,,,,,,,,,,,
,35297,0.8991587162017822,47.0,,,,,,,,,,,,,,
,35347,0.893661379814148,47.0,,,,,,,,,,,,,,
,35397,0.8824996948242188,47.0,,,,,,,,,,,,,,
,35447,0.8001537322998047,47.0,,,,,,,,,,,,,,
,35497,0.8251861333847046,47.0,,,,,,,,,,,,,,
,35547,0.898719072341919,47.0,,,,,,,,,,,,,,
,35597,1.0084012746810913,47.0,,,,,,,,,,,,,,
,35647,0.8353115320205688,47.0,,,,,,,,,,,,,,
,35697,1.050441026687622,47.0,,,,,,,,,,,,,,
,35747,0.996138036251068,47.0,,,,,,,,,,,,,,
,35749,,47.0,0.9285899996757508,27.8676700592041,5.699984550476074,7.4567060470581055,14.710979461669922,,,,,,,,,
,35749,,47.0,,,,,,27.858448028564453,7.408815383911133,6.429070949554443,14.02056121826172,,,,,
0.0008888899999999,35750,,,,,,,,,,,,,,,,
,35797,0.9877073168754578,48.0,,,,,,,,,,,,,,
,35847,0.9959360957145692,48.0,,,,,,,,,,,,,,
,35897,0.997012972831726,48.0,,,,,,,,,,,,,,
,35947,0.771730899810791,48.0,,,,,,,,,,,,,,
,35997,0.8828204274177551,48.0,,,,,,,,,,,,,,
,36047,1.0167503356933594,48.0,,,,,,,,,,,,,,
,36097,0.8912670016288757,48.0,,,,,,,,,,,,,,
,36147,0.9273673295974731,48.0,,,,,,,,,,,,,,
,36197,1.0288128852844238,48.0,,,,,,,,,,,,,,
,36247,0.8159085512161255,48.0,,,,,,,,,,,,,,
,36297,0.9060622453689576,48.0,,,,,,,,,,,,,,
,36347,0.9272191524505616,48.0,,,,,,,,,,,,,,
,36397,0.9188196659088136,48.0,,,,,,,,,,,,,,
,36447,0.8863128423690796,48.0,,,,,,,,,,,,,,
,36493,,48.0,0.909976601600647,27.86905670166016,5.830317497253418,7.587038993835449,14.451700210571287,,,,,,,,,
,36493,,48.0,,,,,,28.172046661376957,7.544928550720215,6.412497520446777,14.214621543884276,,,,,
0.001,36494,,,,,,,,,,,,,,,,
,36497,0.8736506700515747,49.0,,,,,,,,,,,,,,
,36547,0.8790518045425415,49.0,,,,,,,,,,,,,,
,36597,0.9855310320854188,49.0,,,,,,,,,,,,,,
,36647,0.9403642416000366,49.0,,,,,,,,,,,,,,
,36697,0.9751217365264891,49.0,,,,,,,,,,,,,,
,36747,0.9959285259246826,49.0,,,,,,,,,,,,,,
,36797,0.8549649715423584,49.0,,,,,,,,,,,,,,
,36847,0.9572182893753052,49.0,,,,,,,,,,,,,,
,36897,0.9382445812225342,49.0,,,,,,,,,,,,,,
,36947,0.9155820608139038,49.0,,,,,,,,,,,,,,
,36997,1.0455129146575928,49.0,,,,,,,,,,,,,,
,37047,1.0274291038513184,49.0,,,,,,,,,,,,,,
,37097,0.7881916761398315,49.0,,,,,,,,,,,,,,
,37147,0.6171860098838806,49.0,,,,,,,,,,,,,,
,37197,0.9096889495849608,49.0,,,,,,,,,,,,,,
,37237,,49.0,0.9311279654502868,28.677398681640625,6.3308515548706055,7.394312381744385,14.952234268188477,,,,,,,,,
,37237,,49.0,,,,,,28.99604606628418,7.874005794525146,6.3322625160217285,14.78977870941162,,,,,
0.001,37238,,,,,,,,,,,,,,,,
,37247,0.8476966619491577,50.0,,,,,,,,,,,,,,
,37297,0.92909574508667,50.0,,,,,,,,,,,,,,
,37347,0.8844706416130066,50.0,,,,,,,,,,,,,,
,37397,0.8733022212982178,50.0,,,,,,,,,,,,,,
,37447,0.7341035008430481,50.0,,,,,,,,,,,,,,
,37497,0.976654291152954,50.0,,,,,,,,,,,,,,
,37547,0.9150173664093018,50.0,,,,,,,,,,,,,,
,37597,0.9045726656913756,50.0,,,,,,,,,,,,,,
,37647,1.101792335510254,50.0,,,,,,,,,,,,,,
,37697,0.785500168800354,50.0,,,,,,,,,,,,,,
,37747,0.8355268239974976,50.0,,,,,,,,,,,,,,
,37797,0.8019681572914124,50.0,,,,,,,,,,,,,,
,37847,1.1668245792388916,50.0,,,,,,,,,,,,,,
,37897,0.8284916877746582,50.0,,,,,,,,,,,,,,
,37947,0.9561456441879272,50.0,,,,,,,,,,,,,,
,37981,,50.0,0.9575257897377014,28.7772274017334,5.7485127449035645,7.363809108734131,15.664905548095703,,,,,,,,,
,37981,,50.0,,,,,,29.19054412841797,8.02297306060791,6.350915908813477,14.816654205322266,,,,,
0.0009998742433537,37982,,,,,,,,,,,,,,,,
,37997,0.8623671531677246,51.0,,,,,,,,,,,,,,
,38047,0.8090001344680786,51.0,,,,,,,,,,,,,,
,38097,0.9384782910346984,51.0,,,,,,,,,,,,,,
,38147,1.0816303491592407,51.0,,,,,,,,,,,,,,
,38197,0.9388170838356018,51.0,,,,,,,,,,,,,,
,38247,0.7627499103546143,51.0,,,,,,,,,,,,,,
,38297,0.8862407207489014,51.0,,,,,,,,,,,,,,
,38347,0.9143348932266236,51.0,,,,,,,,,,,,,,
,38397,1.0577428340911863,51.0,,,,,,,,,,,,,,
,38447,0.9507561922073364,51.0,,,,,,,,,,,,,,
,38497,1.066218018531799,51.0,,,,,,,,,,,,,,
,38547,1.1129072904586792,51.0,,,,,,,,,,,,,,
,38597,0.8212710022926331,51.0,,,,,,,,,,,,,,
,38647,0.9016305208206176,51.0,,,,,,,,,,,,,,
,38697,1.4578707218170166,51.0,,,,,,,,,,,,,,
,38725,,51.0,0.9217156171798706,27.7248592376709,4.791813850402832,8.130555152893066,14.802490234375,,,,,,,,,
,38725,,51.0,,,,,,28.6890926361084,7.64301872253418,6.459070682525635,14.587002754211426,,,,,
0.0009994970367373,38726,,,,,,,,,,,,,,,,
,38747,0.9617655873298644,52.0,,,,,,,,,,,,,,
,38797,1.048448920249939,52.0,,,,,,,,,,,,,,
,38847,0.8071116209030151,52.0,,,,,,,,,,,,,,
,38897,0.9311893582344056,52.0,,,,,,,,,,,,,,
,38947,0.883185863494873,52.0,,,,,,,,,,,,,,
,38997,0.8297841548919678,52.0,,,,,,,,,,,,,,
,39047,1.1632018089294434,52.0,,,,,,,,,,,,,,
,39097,1.015496850013733,52.0,,,,,,,,,,,,,,
,39147,0.8297349810600281,52.0,,,,,,,,,,,,,,
,39197,0.92620849609375,52.0,,,,,,,,,,,,,,
,39247,1.014592170715332,52.0,,,,,,,,,,,,,,
,39297,0.9265823364257812,52.0,,,,,,,,,,,,,,
,39347,0.913041651248932,52.0,,,,,,,,,,,,,,
,39397,0.7863161563873291,52.0,,,,,,,,,,,,,,
,39447,0.808705747127533,52.0,,,,,,,,,,,,,,
,39469,,52.0,0.914087414741516,27.59591293334961,5.460116863250732,7.670229911804199,14.46556568145752,,,,,,,,,
,39469,,52.0,,,,,,28.33087539672852,7.574371814727783,6.401231288909912,14.35527229309082,,,,,
,39470,,53.0,0.8479189276695251,25.86969566345215,5.2729363441467285,7.343011379241943,13.25374698638916,,,,,,,,,
,39470,,53.0,,,,,,,,,,0.6690447330474854,20.79347419738769,5.986940860748291,1.8221725225448608,12.984359741210938
