lr-Adam,step,train/loss,epoch,val/loss,val/CER,val/IER,val/DER,val/SER,train/CER,train/IER,train/DER,train/SER
1e-08,0,,,,,,,,,,,
,49,199.14459228515625,0,,,,,,,,,
,99,146.13754272460938,0,,,,,,,,,
,149,194.60140991210938,0,,,,,,,,,
,199,140.8449249267578,0,,,,,,,,,
,249,194.151611328125,0,,,,,,,,,
,299,194.87100219726562,0,,,,,,,,,
,349,159.3328094482422,0,,,,,,,,,
,399,236.8708038330078,0,,,,,,,,,
,449,181.51434326171875,0,,,,,,,,,
,499,140.57510375976562,0,,,,,,,,,
,549,129.72886657714844,0,,,,,,,,,
,599,259.17938232421875,0,,,,,,,,,
,649,189.19227600097656,0,,,,,,,,,
,699,197.470458984375,0,,,,,,,,,
,743,,0,168.8004150390625,2559.16552734375,0.03604952618479729,2507.506591796875,51.622920989990234,,,,
,743,,0,,,,,,2494.342041015625,0.02995140105485916,2439.90625,54.405914306640625
0.00011112,744,,,,,,,,,,,
,749,122.8912353515625,1,,,,,,,,,
,799,5.129769325256348,1,,,,,,,,,
,849,4.239597797393799,1,,,,,,,,,
,899,3.7076666355133057,1,,,,,,,,,
,949,3.6946029663085938,1,,,,,,,,,
,999,3.7434988021850586,1,,,,,,,,,
,1049,3.7664506435394287,1,,,,,,,,,
,1099,3.5191969871520996,1,,,,,,,,,
,1149,3.4948487281799316,1,,,,,,,,,
,1199,3.474444627761841,1,,,,,,,,,
,1249,4.178685188293457,1,,,,,,,,,
,1299,3.4629924297332764,1,,,,,,,,,
,1349,3.5869927406311035,1,,,,,,,,,
,1399,3.431922435760498,1,,,,,,,,,
,1449,3.4366021156311035,1,,,,,,,,,
,1487,,1,3.4695751667022705,100.0,100.0,0.0,0.0,,,,
,1487,,1,,,,,,113.63603973388672,98.54132843017578,13.961729049682617,1.1329811811447144
0.00022223000000000002,1488,,,,,,,,,,,
,1499,3.456026315689087,2,,,,,,,,,
,1549,3.3575479984283447,2,,,,,,,,,
,1599,3.3686041831970215,2,,,,,,,,,
,1649,3.4375762939453125,2,,,,,,,,,
,1699,3.7372312545776367,2,,,,,,,,,
,1749,3.468203067779541,2,,,,,,,,,
,1799,3.3629038333892822,2,,,,,,,,,
,1849,3.3991708755493164,2,,,,,,,,,
,1899,3.4117722511291504,2,,,,,,,,,
,1949,3.3476157188415527,2,,,,,,,,,
,1999,3.6036055088043213,2,,,,,,,,,
,2049,3.31339693069458,2,,,,,,,,,
,2099,3.3338117599487305,2,,,,,,,,,
,2149,3.3180460929870605,2,,,,,,,,,
,2199,3.7759265899658203,2,,,,,,,,,
,2231,,2,3.355938196182251,100.0,100.0,0.0,0.0,,,,
,2231,,2,,,,,,100.0,100.0,0.0,0.0
0.00033334,2232,,,,,,,,,,,
,2249,3.3116984367370605,3,,,,,,,,,
,2299,3.384756326675415,3,,,,,,,,,
,2349,3.3376057147979736,3,,,,,,,,,
,2399,3.306621551513672,3,,,,,,,,,
,2449,3.2339367866516113,3,,,,,,,,,
,2499,3.275893211364746,3,,,,,,,,,
,2549,3.289557456970215,3,,,,,,,,,
,2599,3.2850892543792725,3,,,,,,,,,
,2649,3.2525322437286377,3,,,,,,,,,
,2699,3.378434896469116,3,,,,,,,,,
,2749,3.3306684494018555,3,,,,,,,,,
,2799,3.2772789001464844,3,,,,,,,,,
,2849,3.2036283016204834,3,,,,,,,,,
,2899,3.2230467796325684,3,,,,,,,,,
,2949,3.4493179321289062,3,,,,,,,,,
,2975,,3,3.231736421585083,100.0,100.0,0.0,0.0,,,,
,2975,,3,,,,,,100.0,100.0,0.0,0.0
0.00044445,2976,,,,,,,,,,,
,2999,3.3742544651031494,4,,,,,,,,,
,3049,3.2857069969177246,4,,,,,,,,,
,3099,3.2879011631011963,4,,,,,,,,,
,3149,3.258423328399658,4,,,,,,,,,
,3199,3.284045696258545,4,,,,,,,,,
,3249,3.2662432193756104,4,,,,,,,,,
,3299,3.229989528656006,4,,,,,,,,,
,3349,3.8305282592773438,4,,,,,,,,,
,3399,3.1331427097320557,4,,,,,,,,,
,3449,3.2721338272094727,4,,,,,,,,,
,3499,3.1614513397216797,4,,,,,,,,,
,3549,3.213855743408203,4,,,,,,,,,
,3599,3.3058013916015625,4,,,,,,,,,
,3649,3.6078906059265137,4,,,,,,,,,
,3699,3.0953588485717773,4,,,,,,,,,
,3719,,4,3.1585006713867188,100.0,100.0,0.0,0.0,,,,
,3719,,4,,,,,,100.0,100.0,0.0,0.0
0.00055556,3720,,,,,,,,,,,
,3749,3.1278793811798096,5,,,,,,,,,
,3799,3.072442054748535,5,,,,,,,,,
,3849,3.286158800125122,5,,,,,,,,,
,3899,3.1333045959472656,5,,,,,,,,,
,3949,3.2186970710754395,5,,,,,,,,,
,3999,3.2241504192352295,5,,,,,,,,,
,4049,3.097421884536743,5,,,,,,,,,
,4099,3.2310914993286133,5,,,,,,,,,
,4149,3.1070027351379395,5,,,,,,,,,
,4199,3.2904930114746094,5,,,,,,,,,
,4249,2.9857234954833984,5,,,,,,,,,
,4299,3.07131290435791,5,,,,,,,,,
,4349,3.030677556991577,5,,,,,,,,,
,4399,2.978639602661133,5,,,,,,,,,
,4449,3.216610908508301,5,,,,,,,,,
,4463,,5,3.0311570167541504,99.97088623046875,99.96533966064453,0.0,0.005546080879867077,,,,
,4463,,5,,,,,,100.0,100.0,0.0,0.0
0.00066667,4464,,,,,,,,,,,
,4499,3.2607617378234863,6,,,,,,,,,
,4549,3.0320215225219727,6,,,,,,,,,
,4599,3.0068233013153076,6,,,,,,,,,
,4649,3.067732810974121,6,,,,,,,,,
,4699,2.966649055480957,6,,,,,,,,,
,4749,3.063300609588623,6,,,,,,,,,
,4799,2.983844041824341,6,,,,,,,,,
,4849,3.0465445518493652,6,,,,,,,,,
,4899,2.935579776763916,6,,,,,,,,,
,4949,3.0410661697387695,6,,,,,,,,,
,4999,3.0050230026245117,6,,,,,,,,,
,5049,2.9308996200561523,6,,,,,,,,,
,5099,2.995157480239868,6,,,,,,,,,
,5149,2.8496479988098145,6,,,,,,,,,
,5199,2.8557846546173096,6,,,,,,,,,
,5207,,6,2.814685821533203,99.9736557006836,99.9722671508789,0.0,0.0013865202199667692,,,,
,5207,,6,,,,,,99.98421478271484,99.98196411132812,0.0,0.002254929393529892
0.0007777799999999999,5208,,,,,,,,,,,
,5249,2.9031853675842285,7,,,,,,,,,
,5299,2.9783108234405518,7,,,,,,,,,
,5349,2.9146735668182373,7,,,,,,,,,
,5399,2.8371376991271973,7,,,,,,,,,
,5449,3.0533604621887207,7,,,,,,,,,
,5499,2.9123740196228027,7,,,,,,,,,
,5549,2.9492239952087402,7,,,,,,,,,
,5599,2.8026883602142334,7,,,,,,,,,
,5649,2.969207525253296,7,,,,,,,,,
,5699,2.778787851333618,7,,,,,,,,,
,5749,2.7614307403564453,7,,,,,,,,,
,5799,2.9219560623168945,7,,,,,,,,,
,5849,2.9148664474487305,7,,,,,,,,,
,5899,2.6645736694335938,7,,,,,,,,,
,5949,2.786524534225464,7,,,,,,,,,
,5951,,7,2.594733953475952,98.23634338378906,98.0741195678711,0.005546080879867077,0.156676784157753,,,,
,5951,,7,,,,,,99.76888275146484,99.7508316040039,0.0,0.018051007762551308
0.0008888899999999999,5952,,,,,,,,,,,
,5999,2.801055908203125,8,,,,,,,,,
,6049,2.7540500164031982,8,,,,,,,,,
,6099,2.6841564178466797,8,,,,,,,,,
,6149,2.6484017372131348,8,,,,,,,,,
,6199,3.091449022293091,8,,,,,,,,,
,6249,2.733844041824341,8,,,,,,,,,
,6299,2.708437204360962,8,,,,,,,,,
,6349,2.6716341972351074,8,,,,,,,,,
,6399,3.051839828491211,8,,,,,,,,,
,6449,2.686264753341675,8,,,,,,,,,
,6499,2.7193892002105713,8,,,,,,,,,
,6549,2.3527297973632812,8,,,,,,,,,
,6599,2.725823402404785,8,,,,,,,,,
,6649,2.409050941467285,8,,,,,,,,,
,6695,,8,2.3706181049346924,94.48165130615234,93.85078430175781,0.024957364425063133,0.6059093475341797,,,,
,6695,,8,,,,,,98.59896850585938,98.45805358886719,0.0016122375382110476,0.13929732143878937
0.001,6696,,,,,,,,,,,
,6699,2.618868827819824,9,,,,,,,,,
,6749,2.553941249847412,9,,,,,,,,,
,6799,2.5723776817321777,9,,,,,,,,,
,6849,2.4955177307128906,9,,,,,,,,,
,6899,2.493229389190674,9,,,,,,,,,
,6949,2.5371830463409424,9,,,,,,,,,
,6999,2.6799473762512207,9,,,,,,,,,
,7049,2.3777925968170166,9,,,,,,,,,
,7099,2.58835506439209,9,,,,,,,,,
,7149,2.695650577545166,9,,,,,,,,,
,7199,2.4535415172576904,9,,,,,,,,,
,7249,2.5521316528320312,9,,,,,,,,,
,7299,2.4185879230499268,9,,,,,,,,,
,7349,2.491863489151001,9,,,,,,,,,
,7399,2.331145763397217,9,,,,,,,,,
,7439,,9,2.221357583999634,80.6746826171875,75.11750793457031,0.5490620136260986,5.008111000061035,,,,
,7439,,9,,,,,,94.2345962524414,93.35842895507812,0.03539424389600754,0.8407741785049438
0.001,7440,,,,,,,,,,,
,7449,2.312422513961792,10,,,,,,,,,
,7499,2.3739113807678223,10,,,,,,,,,
,7549,2.3230180740356445,10,,,,,,,,,
,7599,2.419196605682373,10,,,,,,,,,
,7649,2.158820629119873,10,,,,,,,,,
,7699,2.29439377784729,10,,,,,,,,,
,7749,2.3023717403411865,10,,,,,,,,,
,7799,2.451763391494751,10,,,,,,,,,
,7849,2.3559136390686035,10,,,,,,,,,
,7899,2.3657283782958984,10,,,,,,,,,
,7949,2.245509147644043,10,,,,,,,,,
,7999,2.119717597961426,10,,,,,,,,,
,8049,2.1269474029541016,10,,,,,,,,,
,8099,2.381409168243408,10,,,,,,,,,
,8149,2.3047165870666504,10,,,,,,,,,
,8183,,10,1.9085067510604858,65.5851821899414,51.17230224609375,1.8149549961090088,12.597923278808594,,,,
,8183,,10,,,,,,80.9228744506836,73.21226501464844,0.5706309080123901,7.139978885650635
0.000999874243353782,8184,,,,,,,,,,,
,8199,2.521681070327759,11,,,,,,,,,
,8249,2.1762609481811523,11,,,,,,,,,
,8299,2.0731418132781982,11,,,,,,,,,
,8349,2.018064022064209,11,,,,,,,,,
,8399,2.101956844329834,11,,,,,,,,,
,8449,2.272294759750366,11,,,,,,,,,
,8499,2.305797576904297,11,,,,,,,,,
,8549,1.959961175918579,11,,,,,,,,,
,8599,2.200566530227661,11,,,,,,,,,
,8649,2.187999725341797,11,,,,,,,,,
,8699,2.1252965927124023,11,,,,,,,,,
,8749,2.112494468688965,11,,,,,,,,,
,8799,1.6853301525115967,11,,,,,,,,,
,8849,1.9133411645889282,11,,,,,,,,,
,8899,2.2677552700042725,11,,,,,,,,,
,8927,,11,1.7485194206237793,56.96240997314453,35.7139892578125,3.281893491744995,17.966529846191406,,,,
,8927,,11,,,,,,69.83052062988281,55.06047821044922,1.3643486499786377,13.405691146850586
0.0009994970367373866,8928,,,,,,,,,,,
,8949,2.138408899307251,12,,,,,,,,,
,8999,2.6124062538146973,12,,,,,,,,,
,9049,2.240513801574707,12,,,,,,,,,
,9099,2.0390615463256836,12,,,,,,,,,
,9149,1.93541419506073,12,,,,,,,,,
,9199,2.124756097793579,12,,,,,,,,,
,9249,2.117341995239258,12,,,,,,,,,
,9299,2.1162102222442627,12,,,,,,,,,
,9349,1.7580695152282715,12,,,,,,,,,
,9399,1.7477142810821533,12,,,,,,,,,
,9449,1.8165048360824585,12,,,,,,,,,
,9499,2.08785343170166,12,,,,,,,,,
,9549,2.0101888179779053,12,,,,,,,,,
,9599,1.7346938848495483,12,,,,,,,,,
,9649,2.0258755683898926,12,,,,,,,,,
,9671,,12,1.6847504377365112,55.56202697753906,35.89284896850586,2.9532880783081055,16.71588897705078,,,,
,9671,,12,,,,,,64.30207061767578,45.61778259277344,1.8925158977508545,16.791770935058594
0.0009988685700857047,9672,,,,,,,,,,,
,9699,2.2129433155059814,13,,,,,,,,,
,9749,1.9643852710723877,13,,,,,,,,,
,9799,1.76409113407135,13,,,,,,,,,
,9849,2.013672351837158,13,,,,,,,,,
,9899,1.8760193586349487,13,,,,,,,,,
,9949,2.0409278869628906,13,,,,,,,,,
,9999,1.7032368183135986,13,,,,,,,,,
,10049,1.9261963367462158,13,,,,,,,,,
,10099,1.7627198696136475,13,,,,,,,,,
,10149,1.7332758903503418,13,,,,,,,,,
,10199,1.81294584274292,13,,,,,,,,,
,10249,2.000601053237915,13,,,,,,,,,
,10299,1.7443313598632812,13,,,,,,,,,
,10349,1.7078979015350342,13,,,,,,,,,
,10399,2.0144643783569336,13,,,,,,,,,
,10415,,13,1.5925785303115845,50.002079010009766,25.170888900756836,4.106873035430908,20.72431755065918,,,,
,10415,,13,,,,,,61.14803695678711,40.93590545654297,2.257606267929077,17.954524993896484
0.0009979891598506218,10416,,,,,,,,,,,
,10449,1.8484113216400146,14,,,,,,,,,
,10499,2.0366222858428955,14,,,,,,,,,
,10549,1.7154537439346313,14,,,,,,,,,
,10599,1.8884129524230957,14,,,,,,,,,
,10649,2.0109646320343018,14,,,,,,,,,
,10699,1.8653820753097534,14,,,,,,,,,
,10749,1.8491108417510986,14,,,,,,,,,
,10799,2.1198668479919434,14,,,,,,,,,
,10849,1.6105057001113892,14,,,,,,,,,
,10899,1.8856122493743896,14,,,,,,,,,
,10949,1.91825532913208,14,,,,,,,,,
,10999,1.7400727272033691,14,,,,,,,,,
,11049,1.7050834894180298,14,,,,,,,,,
,11099,1.8181456327438354,14,,,,,,,,,
,11149,1.792814016342163,14,,,,,,,,,
,11159,,14,1.5253883600234985,48.734798431396484,24.678674697875977,3.871164560317993,20.184961318969727,,,,
,11159,,14,,,,,,58.198734283447266,36.419124603271484,2.55684757232666,19.222763061523438
0.0009968592488416746,11160,,,,,,,,,,,
,11199,1.7178874015808105,15,,,,,,,,,
,11249,1.7352951765060425,15,,,,,,,,,
,11299,2.0622622966766357,15,,,,,,,,,
,11349,1.5840723514556885,15,,,,,,,,,
,11399,1.6596218347549438,15,,,,,,,,,
,11449,1.7835149765014648,15,,,,,,,,,
,11499,2.047379493713379,15,,,,,,,,,
,11549,1.817860722541809,15,,,,,,,,,
,11599,1.949984073638916,15,,,,,,,,,
,11649,1.7803664207458496,15,,,,,,,,,
,11699,1.7310861349105835,15,,,,,,,,,
,11749,1.836299180984497,15,,,,,,,,,
,11799,1.5284404754638672,15,,,,,,,,,
,11849,1.7440797090530396,15,,,,,,,,,
,11899,1.7954047918319702,15,,,,,,,,,
,11903,,15,1.5182749032974243,47.334415435791016,22.12609100341797,5.224408149719238,19.983917236328125,,,,
,11903,,15,,,,,,56.053260803222656,33.02465057373047,2.8093557357788086,20.219253540039062
0.0009954794060030834,11904,,,,,,,,,,,
,11949,1.440176248550415,16,,,,,,,,,
,11999,1.5113787651062012,16,,,,,,,,,
,12049,1.4895128011703491,16,,,,,,,,,
,12099,1.7581074237823486,16,,,,,,,,,
,12149,1.8556581735610962,16,,,,,,,,,
,12199,1.6517140865325928,16,,,,,,,,,
,12249,1.4275343418121338,16,,,,,,,,,
,12299,1.3957440853118896,16,,,,,,,,,
,12349,1.7221627235412598,16,,,,,,,,,
,12399,1.624342679977417,16,,,,,,,,,
,12449,1.698852300643921,16,,,,,,,,,
,12499,2.0971732139587402,16,,,,,,,,,
,12549,2.355419158935547,16,,,,,,,,,
,12599,1.5011811256408691,16,,,,,,,,,
,12647,,16,1.4508477449417114,45.02585983276367,18.544708251953125,5.29789400100708,21.183256149291992,,,,
,12647,,16,,,,,,54.04634094238281,30.329435348510742,3.046311616897583,20.670595169067383
0.0009938503261272714,12648,,,,,,,,,,,
,12649,1.4593589305877686,17,,,,,,,,,
,12699,1.596312403678894,17,,,,,,,,,
,12749,1.8134181499481201,17,,,,,,,,,
,12799,1.6950984001159668,17,,,,,,,,,
,12849,1.837706446647644,17,,,,,,,,,
,12899,1.7687464952468872,17,,,,,,,,,
,12949,1.9520084857940674,17,,,,,,,,,
,12999,1.5244905948638916,17,,,,,,,,,
,13049,1.6324373483657837,17,,,,,,,,,
,13099,1.5861663818359375,17,,,,,,,,,
,13149,1.9481720924377441,17,,,,,,,,,
,13199,1.5394666194915771,17,,,,,,,,,
,13249,1.5143966674804688,17,,,,,,,,,
,13299,1.839495062828064,17,,,,,,,,,
,13349,1.8291854858398438,17,,,,,,,,,
,13391,,17,1.3782838582992554,44.73191452026367,20.860197067260742,4.514510154724121,19.357210159301758,,,,
,13391,,17,,,,,,52.51311111450195,28.410465240478516,3.2874274253845215,20.815217971801758
0.0009919728295050155,13392,,,,,,,,,,,
,13399,1.4596543312072754,18,,,,,,,,,
,13449,1.4407103061676025,18,,,,,,,,,
,13499,1.679073691368103,18,,,,,,,,,
,13549,1.4789962768554688,18,,,,,,,,,
,13599,1.7867306470870972,18,,,,,,,,,
,13649,1.5074210166931152,18,,,,,,,,,
,13699,1.976301908493042,18,,,,,,,,,
,13749,1.4238152503967285,18,,,,,,,,,
,13799,1.721716046333313,18,,,,,,,,,
,13849,1.5276782512664795,18,,,,,,,,,
,13899,1.571711540222168,18,,,,,,,,,
,13949,1.8036222457885742,18,,,,,,,,,
,13999,1.5396660566329956,18,,,,,,,,,
,14049,1.7884281873703003,18,,,,,,,,,
,14099,1.6402866840362549,18,,,,,,,,,
,14135,,18,1.3830164670944214,43.482662200927734,19.115955352783203,4.926306247711182,19.440401077270508,,,,
,14135,,18,,,,,,51.152095794677734,26.714916229248047,3.5051772594451904,20.932003021240234
0.0009898478615124062,14136,,,,,,,,,,,
,14149,1.4764132499694824,19,,,,,,,,,
,14199,1.3924177885055542,19,,,,,,,,,
,14249,1.4106419086456299,19,,,,,,,,,
,14299,1.3916562795639038,19,,,,,,,,,
,14349,1.7432506084442139,19,,,,,,,,,
,14399,1.57771635055542,19,,,,,,,,,
,14449,1.6076500415802002,19,,,,,,,,,
,14499,1.6441643238067627,19,,,,,,,,,
,14549,1.9039380550384521,19,,,,,,,,,
,14599,1.6445180177688599,19,,,,,,,,,
,14649,1.5782558917999268,19,,,,,,,,,
,14699,1.4990240335464478,19,,,,,,,,,
,14749,1.334757685661316,19,,,,,,,,,
,14799,1.4510796070098877,19,,,,,,,,,
,14849,1.5076508522033691,19,,,,,,,,,
,14879,,19,1.3688567876815796,45.092411041259766,22.747251510620117,3.887802839279175,18.45735740661621,,,,
,14879,,19,,,,,,49.85722351074219,25.032318115234375,3.676191568374634,21.148714065551758
0.000987476492134821,14880,,,,,,,,,,,
,14899,1.4881540536880493,20,,,,,,,,,
,14949,1.5306352376937866,20,,,,,,,,,
,14999,1.2895848751068115,20,,,,,,,,,
,15049,1.4932985305786133,20,,,,,,,,,
,15099,1.7667466402053833,20,,,,,,,,,
,15149,1.5056902170181274,20,,,,,,,,,
,15199,1.3423371315002441,20,,,,,,,,,
,15249,1.546775221824646,20,,,,,,,,,
,15299,1.4975090026855469,20,,,,,,,,,
,15349,1.378969669342041,20,,,,,,,,,
,15399,1.7471790313720703,20,,,,,,,,,
,15449,1.6693215370178223,20,,,,,,,,,
,15499,1.652492880821228,20,,,,,,,,,
,15549,1.3058366775512695,20,,,,,,,,,
,15599,1.714279055595398,20,,,,,,,,,
,15623,,20,1.3177651166915894,41.81745147705078,16.916933059692383,4.981767177581787,19.918750762939453,,,,
,15623,,20,,,,,,48.79701232910156,24.04688262939453,3.8047397136688232,20.945388793945312
0.0009848599154281552,15624,,,,,,,,,,,
,15649,1.4843454360961914,21,,,,,,,,,
,15699,1.433497428894043,21,,,,,,,,,
,15749,1.7760405540466309,21,,,,,,,,,
,15799,1.6024208068847656,21,,,,,,,,,
,15849,1.48356294631958,21,,,,,,,,,
,15899,1.33192777633667,21,,,,,,,,,
,15949,1.3975391387939453,21,,,,,,,,,
,15999,1.563551425933838,21,,,,,,,,,
,16049,1.4183424711227417,21,,,,,,,,,
,16099,1.3479604721069336,21,,,,,,,,,
,16149,1.5302083492279053,21,,,,,,,,,
,16199,1.2855932712554932,21,,,,,,,,,
,16249,1.5919721126556396,21,,,,,,,,,
,16299,1.709045648574829,21,,,,,,,,,
,16349,1.4444234371185303,21,,,,,,,,,
,16367,,21,1.3423463106155396,41.631656646728516,15.570622444152832,5.956490993499756,20.104543685913086,,,,
,16367,,21,,,,,,48.184486389160156,23.417787551879883,3.886380672454834,20.880319595336914
0.0009819994489175788,16368,,,,,,,,,,,
,16399,1.6450035572052002,22,,,,,,,,,
,16449,1.730846881866455,22,,,,,,,,,
,16499,1.555553674697876,22,,,,,,,,,
,16549,1.5336111783981323,22,,,,,,,,,
,16599,1.4095507860183716,22,,,,,,,,,
,16649,1.4645946025848389,22,,,,,,,,,
,16699,1.464804768562317,22,,,,,,,,,
,16749,1.4605629444122314,22,,,,,,,,,
,16799,1.555870771408081,22,,,,,,,,,
,16849,1.4171617031097412,22,,,,,,,,,
,16899,1.5899746417999268,22,,,,,,,,,
,16949,1.8290979862213135,22,,,,,,,,,
,16999,1.4802420139312744,22,,,,,,,,,
,17049,1.5828746557235718,22,,,,,,,,,
,17099,1.500723123550415,22,,,,,,,,,
,17111,,22,1.2804045677185059,40.59038162231445,16.4080810546875,5.130125045776367,19.052175521850586,,,,
,17111,,22,,,,,,47.27781677246094,22.168031692504883,4.076760768890381,21.033023834228516
0.0009788965329341228,17112,,,,,,,,,,,
,17149,1.3864699602127075,23,,,,,,,,,
,17199,1.5619349479675293,23,,,,,,,,,
,17249,1.5002915859222412,23,,,,,,,,,
,17299,1.4213430881500244,23,,,,,,,,,
,17349,1.630126953125,23,,,,,,,,,
,17399,1.5761220455169678,23,,,,,,,,,
,17449,1.5264837741851807,23,,,,,,,,,
,17499,1.5616763830184937,23,,,,,,,,,
,17549,1.3285475969314575,23,,,,,,,,,
,17599,1.4481041431427002,23,,,,,,,,,
,17649,1.4850481748580933,23,,,,,,,,,
,17699,1.571488857269287,23,,,,,,,,,
,17749,1.4905692338943481,23,,,,,,,,,
,17799,1.5676884651184082,23,,,,,,,,,
,17849,1.1678709983825684,23,,,,,,,,,
,17855,,23,1.2342091798782349,38.499507904052734,13.307821273803711,5.7596049308776855,19.43208122253418,,,,
,17855,,23,,,,,,46.63379669189453,21.255216598510742,4.1604228019714355,21.218156814575195
0.0009755527298894293,17856,,,,,,,,,,,
,17899,1.3384954929351807,24,,,,,,,,,
,17949,1.5012037754058838,24,,,,,,,,,
,17999,1.374159812927246,24,,,,,,,,,
,18049,1.4006340503692627,24,,,,,,,,,
,18099,1.4714337587356567,24,,,,,,,,,
,18149,1.475672960281372,24,,,,,,,,,
,18199,1.6699410676956177,24,,,,,,,,,
,18249,1.559633493423462,24,,,,,,,,,
,18299,1.4970424175262451,24,,,,,,,,,
,18349,1.3707008361816406,24,,,,,,,,,
,18399,1.504331350326538,24,,,,,,,,,
,18449,1.522282361984253,24,,,,,,,,,
,18499,1.5681151151657104,24,,,,,,,,,
,18549,1.434446096420288,24,,,,,,,,,
,18599,1.5167150497436523,24,,,,,,,,,
,18599,,24,1.2528947591781616,39.66279983520508,15.36819076538086,5.404655933380127,18.889951705932617,,,,
,18599,,24,,,,,,46.34255599975586,21.01140594482422,4.2643914222717285,21.066757202148438
0.0009719697234890296,18600,,,,,,,,,,,
,18649,1.1897788047790527,25,,,,,,,,,
,18699,1.6183634996414185,25,,,,,,,,,
,18749,1.449336051940918,25,,,,,,,,,
,18799,1.3592140674591064,25,,,,,,,,,
,18849,1.53326416015625,25,,,,,,,,,
,18899,1.4265754222869873,25,,,,,,,,,
,18949,1.6604981422424316,25,,,,,,,,,
,18999,1.350873589515686,25,,,,,,,,,
,19049,1.4986062049865723,25,,,,,,,,,
,19099,1.4237580299377441,25,,,,,,,,,
,19149,1.4147891998291016,25,,,,,,,,,
,19199,1.4028725624084473,25,,,,,,,,,
,19249,1.6852965354919434,25,,,,,,,,,
,19299,1.3703606128692627,25,,,,,,,,,
,19343,,25,1.2400964498519897,38.71857833862305,12.338644027709961,6.3308515548706055,20.049083709716797,,,,
,19343,,25,,,,,,45.443092346191406,19.982215881347656,4.409348487854004,21.051528930664062
0.0009681493178845487,19344,,,,,,,,,,,
,19349,1.4138851165771484,26,,,,,,,,,
,19399,1.4879693984985352,26,,,,,,,,,
,19449,1.4815948009490967,26,,,,,,,,,
,19499,1.4209805727005005,26,,,,,,,,,
,19549,1.5710887908935547,26,,,,,,,,,
,19599,1.6492149829864502,26,,,,,,,,,
,19649,1.3863576650619507,26,,,,,,,,,
,19699,1.2825318574905396,26,,,,,,,,,
,19749,1.3918488025665283,26,,,,,,,,,
,19799,1.2839473485946655,26,,,,,,,,,
,19849,1.3117427825927734,26,,,,,,,,,
,19899,1.5520929098129272,26,,,,,,,,,
,19949,1.4817382097244263,26,,,,,,,,,
,19999,1.3883798122406006,26,,,,,,,,,
,20049,1.5202494859695435,26,,,,,,,,,
,20087,,26,1.228429913520813,38.86000442504883,13.754281044006348,5.647296905517578,19.458425521850586,,,,
,20087,,26,,,,,,44.87724304199219,19.480043411254883,4.479736804962158,20.917461395263672
0.0009640934367652599,20088,,,,,,,,,,,
,20099,1.361895203590393,27,,,,,,,,,
,20149,1.468109369277954,27,,,,,,,,,
,20199,1.4008750915527344,27,,,,,,,,,
,20249,1.4128206968307495,27,,,,,,,,,
,20299,1.2821235656738281,27,,,,,,,,,
,20349,1.3580617904663086,27,,,,,,,,,
,20399,1.6299967765808105,27,,,,,,,,,
,20449,1.4332436323165894,27,,,,,,,,,
,20499,1.338101863861084,27,,,,,,,,,
,20549,1.6896393299102783,27,,,,,,,,,
,20599,1.4339652061462402,27,,,,,,,,,
,20649,1.2943284511566162,27,,,,,,,,,
,20699,1.535862684249878,27,,,,,,,,,
,20749,1.3479851484298706,27,,,,,,,,,
,20799,1.4860787391662598,27,,,,,,,,,
,20831,,27,1.2141505479812622,37.83259201049805,12.071044921875,6.355808734893799,19.405736923217773,,,,
,20831,,27,,,,,,44.64117431640625,19.186628341674805,4.525345325469971,20.92919921875
0.0009598041223894496,20832,,,,,,,,,,,
,20849,1.3249090909957886,28,,,,,,,,,
,20899,1.4631855487823486,28,,,,,,,,,
,20949,1.3472380638122559,28,,,,,,,,,
,20999,1.4876362085342407,28,,,,,,,,,
,21049,1.2939867973327637,28,,,,,,,,,
,21099,1.3216643333435059,28,,,,,,,,,
,21149,1.3239710330963135,28,,,,,,,,,
,21199,1.5799543857574463,28,,,,,,,,,
,21249,1.4169927835464478,28,,,,,,,,,
,21299,1.1685590744018555,28,,,,,,,,,
,21349,1.3206713199615479,28,,,,,,,,,
,21399,1.6453074216842651,28,,,,,,,,,
,21449,1.4362623691558838,28,,,,,,,,,
,21499,1.293516993522644,28,,,,,,,,,
,21549,1.5050029754638672,28,,,,,,,,,
,21575,,28,1.2139166593551636,37.55667495727539,12.22494888305664,6.182493686676025,19.14923095703125,,,,
,21575,,28,,,,,,44.23710250854492,18.71761703491211,4.624420642852783,20.895065307617188
0.0009552835345560785,21576,,,,,,,,,,,
,21599,1.2545106410980225,29,,,,,,,,,
,21649,1.4177052974700928,29,,,,,,,,,
,21699,1.397982120513916,29,,,,,,,,,
,21749,1.3758907318115234,29,,,,,,,,,
,21799,1.3032848834991455,29,,,,,,,,,
,21849,1.6103613376617432,29,,,,,,,,,
,21899,1.3871595859527588,29,,,,,,,,,
,21949,1.3920049667358398,29,,,,,,,,,
,21999,1.3570235967636108,29,,,,,,,,,
,22049,1.3305779695510864,29,,,,,,,,,
,22099,1.3106310367584229,29,,,,,,,,,
,22149,1.480209469795227,29,,,,,,,,,
,22199,1.5605119466781616,29,,,,,,,,,
,22249,1.4248161315917969,29,,,,,,,,,
,22299,1.3322765827178955,29,,,,,,,,,
,22319,,29,1.2182594537734985,37.15735626220703,9.794379234313965,7.2126784324646,20.150299072265625,,,,
,22319,,29,,,,,,43.58651351928711,18.128774642944336,4.685793399810791,20.771944046020508
0.0009505339495172582,22320,,,,,,,,,,,
,22349,1.451554536819458,30,,,,,,,,,
,22399,1.1576026678085327,30,,,,,,,,,
,22449,1.1888844966888428,30,,,,,,,,,
,22499,1.2733073234558105,30,,,,,,,,,
,22549,1.5148581266403198,30,,,,,,,,,
,22599,1.2561769485473633,30,,,,,,,,,
,22649,1.2742133140563965,30,,,,,,,,,
,22699,1.2761940956115723,30,,,,,,,,,
,22749,1.5006157159805298,30,,,,,,,,,
,22799,1.2524983882904053,30,,,,,,,,,
,22849,1.2514889240264893,30,,,,,,,,,
,22899,1.3537442684173584,30,,,,,,,,,
,22949,1.2751420736312866,30,,,,,,,,,
,22999,1.595296859741211,30,,,,,,,,,
,23049,1.2759042978286743,30,,,,,,,,,
,23063,,30,1.1790680885314941,37.456844329833984,12.854429244995117,5.907962799072266,18.6944522857666,,,,
,23063,,30,,,,,,43.463130950927734,18.073448181152344,4.6530046463012695,20.736677169799805
0.0009455577588320895,23064,,,,,,,,,,,
,23099,1.3229565620422363,31,,,,,,,,,
,23149,1.228489875793457,31,,,,,,,,,
,23199,1.3688595294952393,31,,,,,,,,,
,23249,1.5105966329574585,31,,,,,,,,,
,23299,1.4653254747390747,31,,,,,,,,,
,23349,1.657447338104248,31,,,,,,,,,
,23399,1.2419757843017578,31,,,,,,,,,
,23449,1.3249316215515137,31,,,,,,,,,
,23499,1.2762318849563599,31,,,,,,,,,
,23549,1.375876784324646,31,,,,,,,,,
,23599,1.315032958984375,31,,,,,,,,,
,23649,1.2070778608322144,31,,,,,,,,,
,23699,1.321505069732666,31,,,,,,,,,
,23749,1.1021442413330078,31,,,,,,,,,
,23799,1.5561922788619995,31,,,,,,,,,
,23807,,31,1.1737370491027832,37.777130126953125,14.877362251281738,5.314532279968262,17.585235595703125,,,,
,23807,,31,,,,,,42.897274017333984,17.30111312866211,4.90299654006958,20.693164825439453
0.0009403574681624404,23808,,,,,,,,,,,
,23849,1.4546750783920288,32,,,,,,,,,
,23899,1.207515835762024,32,,,,,,,,,
,23949,1.2249575853347778,32,,,,,,,,,
,23999,1.2738280296325684,32,,,,,,,,,
,24049,1.3901323080062866,32,,,,,,,,,
,24099,1.4303964376449585,32,,,,,,,,,
,24149,1.5139610767364502,32,,,,,,,,,
,24199,1.4222023487091064,32,,,,,,,,,
,24249,1.4827896356582642,32,,,,,,,,,
,24299,1.1930999755859375,32,,,,,,,,,
,24349,1.637166142463684,32,,,,,,,,,
,24399,1.280412197113037,32,,,,,,,,,
,24449,1.26814603805542,32,,,,,,,,,
,24499,1.3826613426208496,32,,,,,,,,,
,24549,1.3481090068817139,32,,,,,,,,,
,24551,,32,1.1647967100143433,36.36565399169922,10.77603530883789,6.583198070526123,19.006420135498047,,,,
,24551,,32,,,,,,42.71513366699219,16.938182830810547,4.902412414550781,20.87453842163086
0.0009349356960112697,24552,,,,,,,,,,,
,24599,1.497423529624939,33,,,,,,,,,
,24649,1.2597426176071167,33,,,,,,,,,
,24699,1.3735527992248535,33,,,,,,,,,
,24749,1.443566918373108,33,,,,,,,,,
,24799,1.3606882095336914,33,,,,,,,,,
,24849,1.572234034538269,33,,,,,,,,,
,24899,1.3707375526428223,33,,,,,,,,,
,24949,1.5210001468658447,33,,,,,,,,,
,24999,1.2437435388565063,33,,,,,,,,,
,25049,1.3738833665847778,33,,,,,,,,,
,25099,1.339421272277832,33,,,,,,,,,
,25149,1.3598768711090088,33,,,,,,,,,
,25199,1.427703857421875,33,,,,,,,,,
,25249,1.3706696033477783,33,,,,,,,,,
,25295,,33,1.1573008298873901,36.543128967285156,12.377466201782227,5.984221458435059,18.181440353393555,,,,
,25295,,33,,,,,,42.3638801574707,16.88918113708496,4.999484062194824,20.4752140045166
0.0009292951724041319,25296,,,,,,,,,,,
,25299,1.5667638778686523,34,,,,,,,,,
,25349,1.2005033493041992,34,,,,,,,,,
,25399,1.2707939147949219,34,,,,,,,,,
,25449,1.6712610721588135,34,,,,,,,,,
,25499,1.378913402557373,34,,,,,,,,,
,25549,1.227959156036377,34,,,,,,,,,
,25599,1.2029012441635132,34,,,,,,,,,
,25649,1.2880475521087646,34,,,,,,,,,
,25699,1.4781689643859863,34,,,,,,,,,
,25749,1.3110874891281128,34,,,,,,,,,
,25799,1.292137861251831,34,,,,,,,,,
,25849,1.4577741622924805,34,,,,,,,,,
,25899,1.564782738685608,34,,,,,,,,,
,25949,1.54158353805542,34,,,,,,,,,
,25999,1.4023436307907104,34,,,,,,,,,
,26039,,34,1.1580829620361328,36.29909896850586,11.251611709594727,6.319759368896484,18.72772979736328,,,,
,26039,,34,,,,,,42.22930908203125,16.549728393554688,5.0050530433654785,20.674528121948242
0.0009234387375145277,26040,,,,,,,,,,,
,26049,1.2306253910064697,35,,,,,,,,,
,26099,1.2277237176895142,35,,,,,,,,,
,26149,1.1381783485412598,35,,,,,,,,,
,26199,1.2362151145935059,35,,,,,,,,,
,26249,1.2308028936386108,35,,,,,,,,,
,26299,1.4404809474945068,35,,,,,,,,,
,26349,1.249821662902832,35,,,,,,,,,
,26399,1.2810044288635254,35,,,,,,,,,
,26449,1.3238866329193115,35,,,,,,,,,
,26499,1.0790396928787231,35,,,,,,,,,
,26549,1.376067876815796,35,,,,,,,,,
,26599,1.2842340469360352,35,,,,,,,,,
,26649,1.2695388793945312,35,,,,,,,,,
,26699,1.4235446453094482,35,,,,,,,,,
,26749,1.4696300029754639,35,,,,,,,,,
,26783,,35,1.1577547788619995,36.96324157714844,13.067953109741211,5.820611953735352,18.074678421020508,,,,
,26783,,35,,,,,,41.99812316894531,16.49904441833496,5.002241134643555,20.496837615966797
0.0009173693402337905,26784,,,,,,,,,,,
,26799,1.0971509218215942,36,,,,,,,,,
,26849,1.3487746715545654,36,,,,,,,,,
,26899,1.1660046577453613,36,,,,,,,,,
,26949,1.4036624431610107,36,,,,,,,,,
,26999,1.2117804288864136,36,,,,,,,,,
,27049,1.4356656074523926,36,,,,,,,,,
,27099,1.1237661838531494,36,,,,,,,,,
,27149,1.4528827667236328,36,,,,,,,,,
,27199,1.3169276714324951,36,,,,,,,,,
,27249,1.4405856132507324,36,,,,,,,,,
,27299,1.346604585647583,36,,,,,,,,,
,27349,1.4257713556289673,36,,,,,,,,,
,27399,1.1833570003509521,36,,,,,,,,,
,27449,1.1789554357528687,36,,,,,,,,,
,27499,1.3074835538864136,36,,,,,,,,,
,27527,,36,1.1313927173614502,36.000999450683594,11.743826866149902,6.0355224609375,18.221649169921875,,,,
,27527,,36,,,,,,41.43201446533203,15.877795219421387,5.093904495239258,20.460311889648438
0.0009110900366862309,27528,,,,,,,,,,,
,27549,1.4443750381469727,37,,,,,,,,,
,27599,1.1682324409484863,37,,,,,,,,,
,27649,1.3456556797027588,37,,,,,,,,,
,27699,1.1807124614715576,37,,,,,,,,,
,27749,1.1351051330566406,37,,,,,,,,,
,27799,1.1288063526153564,37,,,,,,,,,
,27849,1.2932014465332031,37,,,,,,,,,
,27899,1.3880566358566284,37,,,,,,,,,
,27949,1.326112985610962,37,,,,,,,,,
,27999,1.5063185691833496,37,,,,,,,,,
,28049,1.3422412872314453,37,,,,,,,,,
,28099,1.2551264762878418,37,,,,,,,,,
,28149,1.2303051948547363,37,,,,,,,,,
,28199,1.553856611251831,37,,,,,,,,,
,28249,1.055582046508789,37,,,,,,,,,
,28271,,37,1.1252573728561401,35.144126892089844,10.507050514221191,6.441772937774658,18.19530487060547,,,,
,28271,,37,,,,,,41.07307815551758,15.490971565246582,5.146810054779053,20.4352970123291
0.000904603988690286,28272,,,,,,,,,,,
,28299,1.2173434495925903,38,,,,,,,,,
,28349,1.1866716146469116,38,,,,,,,,,
,28399,1.2908700704574585,38,,,,,,,,,
,28449,1.4706151485443115,38,,,,,,,,,
,28499,1.261891484260559,38,,,,,,,,,
,28549,1.2430367469787598,38,,,,,,,,,
,28599,1.321300983428955,38,,,,,,,,,
,28649,1.276734471321106,38,,,,,,,,,
,28699,1.510986566543579,38,,,,,,,,,
,28749,1.276845932006836,38,,,,,,,,,
,28799,1.2366074323654175,38,,,,,,,,,
,28849,1.368039846420288,38,,,,,,,,,
,28899,1.351038932800293,38,,,,,,,,,
,28949,1.3227059841156006,38,,,,,,,,,
,28999,1.1611113548278809,38,,,,,,,,,
,29015,,38,1.13063645362854,35.89423751831055,11.682819366455078,5.95233154296875,18.259084701538086,,,,
,29015,,38,,,,,,40.488433837890625,14.965088844299316,5.202869892120361,20.320472717285156
0.0008979144621664494,29016,,,,,,,,,,,
,29049,1.3135349750518799,39,,,,,,,,,
,29099,1.4391825199127197,39,,,,,,,,,
,29149,1.4544687271118164,39,,,,,,,,,
,29199,1.1806704998016357,39,,,,,,,,,
,29249,1.165835976600647,39,,,,,,,,,
,29299,1.258841633796692,39,,,,,,,,,
,29349,1.4013864994049072,39,,,,,,,,,
,29399,1.3865467309951782,39,,,,,,,,,
,29449,1.0883827209472656,39,,,,,,,,,
,29499,1.3136630058288574,39,,,,,,,,,
,29549,1.1298822164535522,39,,,,,,,,,
,29599,1.3505065441131592,39,,,,,,,,,
,29649,1.3985886573791504,39,,,,,,,,,
,29699,1.0587451457977295,39,,,,,,,,,
,29749,1.2221901416778564,39,,,,,,,,,
,29759,,39,1.108434796333313,34.98051834106445,10.936871528625488,6.103462219238281,17.940185546875,,,,
,29759,,39,,,,,,40.60774230957031,15.319941520690918,5.184447288513184,20.10335350036621
0.0008910248254927808,29760,,,,,,,,,,,
,29799,1.5175515413284302,40,,,,,,,,,
,29849,1.382807970046997,40,,,,,,,,,
,29899,1.2944918870925903,40,,,,,,,,,
,29949,1.345526933670044,40,,,,,,,,,
,29999,1.345618486404419,40,,,,,,,,,
,30049,1.2836956977844238,40,,,,,,,,,
,30099,1.3812901973724365,40,,,,,,,,,
,30149,1.1044347286224365,40,,,,,,,,,
,30199,1.2532271146774292,40,,,,,,,,,
,30249,1.473561406135559,40,,,,,,,,,
,30299,1.345327377319336,40,,,,,,,,,
,30349,1.3796418905258179,40,,,,,,,,,
,30399,1.412186861038208,40,,,,,,,,,
,30449,1.3425438404083252,40,,,,,,,,,
,30499,1.2616381645202637,40,,,,,,,,,
,30503,,40,1.1463956832885742,34.958335876464844,9.565603256225586,6.964491367340088,18.428239822387695,,,,
,30503,,40,,,,,,40.71406173706055,15.198248863220215,5.215692043304443,20.300121307373047
0.0008839385478088264,30504,,,,,,,,,,,
,30549,1.3646026849746704,41,,,,,,,,,
,30599,1.1426793336868286,41,,,,,,,,,
,30649,1.3330931663513184,41,,,,,,,,,
,30699,1.2057512998580933,41,,,,,,,,,
,30749,1.2788105010986328,41,,,,,,,,,
,30799,1.1409125328063965,41,,,,,,,,,
,30849,1.1767494678497314,41,,,,,,,,,
,30899,1.5622470378875732,41,,,,,,,,,
,30949,1.2352190017700195,41,,,,,,,,,
,30999,1.3104441165924072,41,,,,,,,,,
,31049,1.3233968019485474,41,,,,,,,,,
,31099,1.222416877746582,41,,,,,,,,,
,31149,1.4368840456008911,41,,,,,,,,,
,31199,1.167880892753601,41,,,,,,,,,
,31247,,41,1.1545469760894775,35.909488677978516,10.271342277526855,6.705212116241455,18.932933807373047,,,,
,31247,,41,,,,,,40.338279724121094,14.85655403137207,5.324183464050293,20.157541275024414
0.0008766591972688036,31248,,,,,,,,,,,
,31249,1.1905062198638916,42,,,,,,,,,
,31299,1.2695162296295166,42,,,,,,,,,
,31349,1.254065990447998,42,,,,,,,,,
,31399,1.2809429168701172,42,,,,,,,,,
,31449,1.1039471626281738,42,,,,,,,,,
,31499,1.3157951831817627,42,,,,,,,,,
,31549,1.338820219039917,42,,,,,,,,,
,31599,1.3319268226623535,42,,,,,,,,,
,31649,1.3818421363830566,42,,,,,,,,,
,31699,1.4480342864990234,42,,,,,,,,,
,31749,1.079487681388855,42,,,,,,,,,
,31799,1.1797401905059814,42,,,,,,,,,
,31849,1.2064132690429688,42,,,,,,,,,
,31899,1.0396819114685059,42,,,,,,,,,
,31949,1.3556480407714844,42,,,,,,,,,
,31991,,42,1.097764492034912,34.20684051513672,10.69284439086914,6.158923149108887,17.355073928833008,,,,
,31991,,42,,,,,,39.9371337890625,14.580096244812012,5.319965362548828,20.037073135375977
0.0008691904392449266,31992,,,,,,,,,,,
,31999,1.1226458549499512,43,,,,,,,,,
,32049,1.0819003582000732,43,,,,,,,,,
,32099,1.4284344911575317,43,,,,,,,,,
,32149,1.254667043685913,43,,,,,,,,,
,32199,1.2862135171890259,43,,,,,,,,,
,32249,1.3805477619171143,43,,,,,,,,,
,32299,1.3264836072921753,43,,,,,,,,,
,32349,1.323209285736084,43,,,,,,,,,
,32399,1.2649632692337036,43,,,,,,,,,
,32449,1.2454659938812256,43,,,,,,,,,
,32499,1.258833408355713,43,,,,,,,,,
,32549,1.3420385122299194,43,,,,,,,,,
,32599,1.3163065910339355,43,,,,,,,,,
,32649,1.2359187602996826,43,,,,,,,,,
,32699,1.2790987491607666,43,,,,,,,,,
,32735,,43,1.103609561920166,34.06541442871094,8.352397918701172,7.372128009796143,18.34088897705078,,,,
,32735,,43,,,,,,39.71550750732422,14.446316719055176,5.329937934875488,19.939254760742188
0.000861536034481782,32736,,,,,,,,,,,
,32749,1.2821050882339478,44,,,,,,,,,
,32799,1.2355222702026367,44,,,,,,,,,
,32849,1.3092501163482666,44,,,,,,,,,
,32899,1.1281099319458008,44,,,,,,,,,
,32949,1.1348023414611816,44,,,,,,,,,
,32999,1.4211785793304443,44,,,,,,,,,
,33049,1.613766074180603,44,,,,,,,,,
,33099,1.229809284210205,44,,,,,,,,,
,33149,1.2230870723724365,44,,,,,,,,,
,33199,1.1925740242004395,44,,,,,,,,,
,33249,1.181825041770935,44,,,,,,,,,
,33299,1.3030714988708496,44,,,,,,,,,
,33349,1.2269647121429443,44,,,,,,,,,
,33399,1.3232063055038452,44,,,,,,,,,
,33449,1.2030887603759766,44,,,,,,,,,
,33479,,44,1.1116535663604736,34.43977737426758,9.221746444702148,6.992221832275391,18.22580909729004,,,,
,33479,,44,,,,,,39.72160339355469,14.314332962036133,5.451143741607666,19.956127166748047
0.0008536998372026804,33480,,,,,,,,,,,
,33499,1.2876248359680176,45,,,,,,,,,
,33549,1.1743199825286865,45,,,,,,,,,
,33599,1.3728110790252686,45,,,,,,,,,
,33649,1.014643669128418,45,,,,,,,,,
,33699,1.284818410873413,45,,,,,,,,,
,33749,1.3975437879562378,45,,,,,,,,,
,33799,1.3319865465164185,45,,,,,,,,,
,33849,1.2945828437805176,45,,,,,,,,,
,33899,1.2890894412994385,45,,,,,,,,,
,33949,1.2453224658966064,45,,,,,,,,,
,33999,1.2530592679977417,45,,,,,,,,,
,34049,1.331176996231079,45,,,,,,,,,
,34099,1.2695434093475342,45,,,,,,,,,
,34149,1.1872575283050537,45,,,,,,,,,
,34199,1.1353293657302856,45,,,,,,,,,
,34223,,45,1.0841431617736816,33.820003509521484,9.371490478515625,6.68996000289917,17.7585506439209,,,,
,34223,,45,,,,,,39.13800811767578,13.947117805480957,5.399932861328125,19.790956497192383
0.0008456857931689388,34224,,,,,,,,,,,
,34249,1.013660192489624,46,,,,,,,,,
,34299,1.3531079292297363,46,,,,,,,,,
,34349,1.3269908428192139,46,,,,,,,,,
,34399,1.055678129196167,46,,,,,,,,,
,34449,1.085326910018921,46,,,,,,,,,
,34499,1.4691243171691895,46,,,,,,,,,
,34549,1.2546396255493164,46,,,,,,,,,
,34599,1.223109483718872,46,,,,,,,,,
,34649,1.1188308000564575,46,,,,,,,,,
,34699,1.1565093994140625,46,,,,,,,,,
,34749,1.205567479133606,46,,,,,,,,,
,34799,1.2511553764343262,46,,,,,,,,,
,34849,1.2381688356399536,46,,,,,,,,,
,34899,1.2331864833831787,46,,,,,,,,,
,34949,1.1673102378845215,46,,,,,,,,,
,34967,,46,1.0784770250320435,33.270938873291016,8.215132713317871,7.244568347930908,17.81123924255371,,,,
,34967,,46,,,,,,38.85988235473633,13.949270248413086,5.38401985168457,19.52659034729004
0.0008374979376930711,34968,,,,,,,,,,,
,34999,1.0919158458709717,47,,,,,,,,,
,35049,1.1286016702651978,47,,,,,,,,,
,35099,1.3664522171020508,47,,,,,,,,,
,35149,1.167797327041626,47,,,,,,,,,
,35199,1.155988335609436,47,,,,,,,,,
,35249,1.0081777572631836,47,,,,,,,,,
,35299,1.104374885559082,47,,,,,,,,,
,35349,1.2820545434951782,47,,,,,,,,,
,35399,1.2800743579864502,47,,,,,,,,,
,35449,1.1862766742706299,47,,,,,,,,,
,35499,1.2600692510604858,47,,,,,,,,,
,35549,1.1157861948013306,47,,,,,,,,,
,35599,0.995063066482544,47,,,,,,,,,
,35649,1.1251440048217773,47,,,,,,,,,
,35699,1.341467261314392,47,,,,,,,,,
,35711,,47,1.0761128664016724,33.591224670410156,9.14687442779541,6.857728958129883,17.58662223815918,,,,
,35711,,47,,,,,,38.59455108642578,13.451018333435059,5.5753092765808105,19.56822395324707
0.0008291403936068863,35712,,,,,,,,,,,
,35749,1.3582103252410889,48,,,,,,,,,
,35799,1.318539023399353,48,,,,,,,,,
,35849,1.3229193687438965,48,,,,,,,,,
,35899,1.1253666877746582,48,,,,,,,,,
,35949,1.1388154029846191,48,,,,,,,,,
,35999,1.0002038478851318,48,,,,,,,,,
,36049,1.2703543901443481,48,,,,,,,,,
,36099,1.0279536247253418,48,,,,,,,,,
,36149,1.1128838062286377,48,,,,,,,,,
,36199,1.3413708209991455,48,,,,,,,,,
,36249,1.4576902389526367,48,,,,,,,,,
,36299,1.3867442607879639,48,,,,,,,,,
,36349,1.3065252304077148,48,,,,,,,,,
,36399,1.1205259561538696,48,,,,,,,,,
,36449,1.2434039115905762,48,,,,,,,,,
,36455,,48,1.0809358358383179,34.1083984375,9.797152519226074,6.4750494956970215,17.836196899414062,,,,
,36455,,48,,,,,,38.628108978271484,13.677094459533691,5.4308762550354,19.520137786865234
0.0008206173691855193,36456,,,,,,,,,,,
,36499,1.1725749969482422,49,,,,,,,,,
,36549,1.4877803325653076,49,,,,,,,,,
,36599,1.031886100769043,49,,,,,,,,,
,36649,1.3099414110183716,49,,,,,,,,,
,36699,1.1791050434112549,49,,,,,,,,,
,36749,1.2340269088745117,49,,,,,,,,,
,36799,1.2758958339691162,49,,,,,,,,,
,36849,1.1636161804199219,49,,,,,,,,,
,36899,1.1829285621643066,49,,,,,,,,,
,36949,1.0944466590881348,49,,,,,,,,,
,36999,1.2483651638031006,49,,,,,,,,,
,37049,1.268584966659546,49,,,,,,,,,
,37099,1.0926973819732666,49,,,,,,,,,
,37149,1.1613863706588745,49,,,,,,,,,
,37199,1.2090191841125488,49,,,,,,,,,
,37199,,49,1.0899500846862793,33.775634765625,8.399539947509766,7.089278221130371,18.286815643310547,,,,
,37199,,49,,,,,,38.53779220581055,13.676948547363281,5.414309501647949,19.446533203125
0.0008119331560284373,37200,,,,,,,,,,,
,37249,1.2545568943023682,50,,,,,,,,,
,37299,1.1749463081359863,50,,,,,,,,,
,37349,1.271643877029419,50,,,,,,,,,
,37399,1.1347548961639404,50,,,,,,,,,
,37449,1.3237724304199219,50,,,,,,,,,
,37499,1.153433084487915,50,,,,,,,,,
,37549,1.3964111804962158,50,,,,,,,,,
,37599,1.139690637588501,50,,,,,,,,,
,37649,1.312740445137024,50,,,,,,,,,
,37699,1.2305858135223389,50,,,,,,,,,
,37749,1.4029983282089233,50,,,,,,,,,
,37799,1.1722867488861084,50,,,,,,,,,
,37849,1.3451242446899414,50,,,,,,,,,
,37899,1.3519742488861084,50,,,,,,,,,
,37943,,50,1.0635650157928467,32.90073776245117,8.111143112182617,7.043522834777832,17.74607276916504,,,,
,37943,,50,,,,,,38.01076889038086,13.015519142150879,5.617753028869629,19.37749481201172
0.0008030921268984896,37944,,,,,,,,,,,
,37949,1.2888553142547607,51,,,,,,,,,
,37999,1.412341833114624,51,,,,,,,,,
,38049,1.2328332662582397,51,,,,,,,,,
,38099,1.0956792831420898,51,,,,,,,,,
,38149,1.1032297611236572,51,,,,,,,,,
,38199,1.1285393238067627,51,,,,,,,,,
,38249,1.075059413909912,51,,,,,,,,,
,38299,1.1801130771636963,51,,,,,,,,,
,38349,1.1867927312850952,51,,,,,,,,,
,38399,1.1998063325881958,51,,,,,,,,,
,38449,1.1998350620269775,51,,,,,,,,,
,38499,1.0643770694732666,51,,,,,,,,,
,38549,1.2503559589385986,51,,,,,,,,,
,38599,1.3834089040756226,51,,,,,,,,,
,38649,1.1141762733459473,51,,,,,,,,,
,38687,,51,1.061653971672058,32.74129104614258,7.26120662689209,7.736783027648926,17.74329948425293,,,,
,38687,,51,,,,,,37.93745422363281,13.015692710876465,5.571905136108398,19.3498592376709
0.0007940987335200902,38688,,,,,,,,,,,
,38699,1.326994776725769,52,,,,,,,,,
,38749,1.141505479812622,52,,,,,,,,,
,38799,1.1765775680541992,52,,,,,,,,,
,38849,1.2098499536514282,52,,,,,,,,,
,38899,1.30521559715271,52,,,,,,,,,
,38949,1.2565150260925293,52,,,,,,,,,
,38999,1.170196294784546,52,,,,,,,,,
,39049,1.2326472997665405,52,,,,,,,,,
,39099,1.2470691204071045,52,,,,,,,,,
,39149,1.3178999423980713,52,,,,,,,,,
,39199,1.0199611186981201,52,,,,,,,,,
,39249,1.2771042585372925,52,,,,,,,,,
,39299,1.2694025039672852,52,,,,,,,,,
,39349,1.1812238693237305,52,,,,,,,,,
,39399,1.1572812795639038,52,,,,,,,,,
,39431,,52,1.0651565790176392,33.31392288208008,8.995743751525879,6.846636772155762,17.471542358398438,,,,
,39431,,52,,,,,,38.06462478637695,13.05600357055664,5.627471446990967,19.381149291992188
0.0007849575043376416,39432,,,,,,,,,,,
,39449,1.0130747556686401,53,,,,,,,,,
,39499,1.371588945388794,53,,,,,,,,,
,39549,1.1302570104599,53,,,,,,,,,
,39599,1.2388806343078613,53,,,,,,,,,
,39649,1.0207836627960205,53,,,,,,,,,
,39699,1.2504583597183228,53,,,,,,,,,
,39749,1.3043832778930664,53,,,,,,,,,
,39799,1.1060583591461182,53,,,,,,,,,
,39849,1.0650572776794434,53,,,,,,,,,
,39899,0.9425055980682373,53,,,,,,,,,
,39949,1.2298293113708496,53,,,,,,,,,
,39999,1.1266968250274658,53,,,,,,,,,
,40049,1.1954816579818726,53,,,,,,,,,
,40099,1.2328510284423828,53,,,,,,,,,
,40149,1.4196555614471436,53,,,,,,,,,
,40175,,53,1.0673989057540894,33.509422302246094,9.723666191101074,6.500007152557373,17.285747528076172,,,,
,40175,,53,,,,,,37.87173843383789,13.048018455505371,5.592329978942871,19.231388092041016
0.000775673042235325,40176,,,,,,,,,,,
,40199,1.172692894935608,54,,,,,,,,,
,40249,0.989205002784729,54,,,,,,,,,
,40299,1.1145020723342896,54,,,,,,,,,
,40349,1.2258038520812988,54,,,,,,,,,
,40399,0.8224149942398071,54,,,,,,,,,
,40449,1.2189676761627197,54,,,,,,,,,
,40499,1.0097824335098267,54,,,,,,,,,
,40549,1.2355726957321167,54,,,,,,,,,
,40599,1.1953520774841309,54,,,,,,,,,
,40649,1.2178215980529785,54,,,,,,,,,
,40699,1.2167739868164062,54,,,,,,,,,
,40749,1.2513842582702637,54,,,,,,,,,
,40799,1.0988959074020386,54,,,,,,,,,
,40849,1.0031208992004395,54,,,,,,,,,
,40899,1.1868795156478882,54,,,,,,,,,
,40919,,54,1.0604603290557861,32.5998649597168,7.409564018249512,7.4830498695373535,17.707250595092773,,,,
,40919,,54,,,,,,37.4620246887207,12.725994110107422,5.607048511505127,19.128982543945312
0.0007662500222194103,40920,,,,,,,,,,,
,40949,1.2089357376098633,55,,,,,,,,,
,40999,1.2628090381622314,55,,,,,,,,,
,41049,1.015903353691101,55,,,,,,,,,
,41099,1.033699631690979,55,,,,,,,,,
,41149,1.1211422681808472,55,,,,,,,,,
,41199,1.3553481101989746,55,,,,,,,,,
,41249,1.1915154457092285,55,,,,,,,,,
,41299,1.1539019346237183,55,,,,,,,,,
,41349,1.2520194053649902,55,,,,,,,,,
,41399,1.156944990158081,55,,,,,,,,,
,41449,1.3111903667449951,55,,,,,,,,,
,41499,1.2938385009765625,55,,,,,,,,,
,41549,0.9817679524421692,55,,,,,,,,,
,41599,1.2093603610992432,55,,,,,,,,,
,41649,1.2625980377197266,55,,,,,,,,,
,41663,,55,1.0481797456741333,32.541629791259766,8.729531288146973,6.823066234588623,16.989032745361328,,,,
,41663,,55,,,,,,37.14497375488281,12.529860496520996,5.673352241516113,18.94175910949707
0.00075669318906425,41664,,,,,,,,,,,
,41699,1.2312266826629639,56,,,,,,,,,
,41749,1.0921573638916016,56,,,,,,,,,
,41799,1.1882866621017456,56,,,,,,,,,
,41849,1.2616362571716309,56,,,,,,,,,
,41899,1.1380019187927246,56,,,,,,,,,
,41949,1.1979949474334717,56,,,,,,,,,
,41999,1.1631104946136475,56,,,,,,,,,
,42049,1.0449118614196777,56,,,,,,,,,
,42099,1.0129618644714355,56,,,,,,,,,
,42149,1.164477825164795,56,,,,,,,,,
,42199,1.1154391765594482,56,,,,,,,,,
,42249,1.2214164733886719,56,,,,,,,,,
,42299,1.2543010711669922,56,,,,,,,,,
,42349,1.2118432521820068,56,,,,,,,,,
,42399,1.1092514991760254,56,,,,,,,,,
,42407,,56,1.0541481971740723,32.8660774230957,9.461614608764648,6.5013933181762695,16.90306854248047,,,,
,42407,,56,,,,,,37.03736114501953,12.587822914123535,5.696394443511963,18.753141403198242
0.0007470073549231411,42408,,,,,,,,,,,
,42449,1.0320135354995728,57,,,,,,,,,
,42499,1.265813946723938,57,,,,,,,,,
,42549,1.0989618301391602,57,,,,,,,,,
,42599,1.09492027759552,57,,,,,,,,,
,42649,1.315150499343872,57,,,,,,,,,
,42699,1.1288069486618042,57,,,,,,,,,
,42749,1.3109610080718994,57,,,,,,,,,
,42799,1.10408353805542,57,,,,,,,,,
,42849,1.1389223337173462,57,,,,,,,,,
,42899,1.134472370147705,57,,,,,,,,,
,42949,1.029482126235962,57,,,,,,,,,
,42999,1.2427523136138916,57,,,,,,,,,
,43049,1.1659835577011108,57,,,,,,,,,
,43099,1.267585277557373,57,,,,,,,,,
,43149,0.954246997833252,57,,,,,,,,,
,43151,,57,1.048624038696289,32.89242172241211,9.70702838897705,6.3987908363342285,16.78660011291504,,,,
,43151,,57,,,,,,36.70177459716797,12.314007759094238,5.676020622253418,18.711746215820312
0.0007371973969052627,43152,,,,,,,,,,,
,43199,1.163282871246338,58,,,,,,,,,
,43249,1.1727718114852905,58,,,,,,,,,
,43299,1.2055656909942627,58,,,,,,,,,
,43349,1.0508254766464233,58,,,,,,,,,
,43399,1.2542576789855957,58,,,,,,,,,
,43449,0.9729459285736084,58,,,,,,,,,
,43499,1.0870436429977417,58,,,,,,,,,
,43549,1.1844176054000854,58,,,,,,,,,
,43599,1.1310958862304688,58,,,,,,,,,
,43649,1.028745412826538,58,,,,,,,,,
,43699,1.4907472133636475,58,,,,,,,,,
,43749,1.25676429271698,58,,,,,,,,,
,43799,1.1759909391403198,58,,,,,,,,,
,43849,1.056321620941162,58,,,,,,,,,
,43895,,58,1.0652508735656738,32.66780471801758,7.903165340423584,7.150284767150879,17.61435317993164,,,,
,43895,,58,,,,,,36.52975082397461,12.183130264282227,5.719676494598389,18.626943588256836
0.0007272682546199035,43896,,,,,,,,,,,
,43899,1.1645400524139404,59,,,,,,,,,
,43949,1.0161751508712769,59,,,,,,,,,
,43999,1.0190606117248535,59,,,,,,,,,
,44049,1.0796183347702026,59,,,,,,,,,
,44099,1.0479769706726074,59,,,,,,,,,
,44149,1.1165121793746948,59,,,,,,,,,
,44199,1.1707284450531006,59,,,,,,,,,
,44249,1.196003794670105,59,,,,,,,,,
,44299,1.1241687536239624,59,,,,,,,,,
,44349,1.2072274684906006,59,,,,,,,,,
,44399,1.13525390625,59,,,,,,,,,
,44449,1.1130385398864746,59,,,,,,,,,
,44499,1.0856595039367676,59,,,,,,,,,
,44549,1.2242352962493896,59,,,,,,,,,
,44599,1.2493788003921509,59,,,,,,,,,
,44639,,59,1.046523094177246,32.0729866027832,6.796722412109375,7.6466593742370605,17.62960433959961,,,,
,44639,,59,,,,,,36.513023376464844,12.030961990356445,5.825021266937256,18.657039642333984
0.0007172249276892202,44640,,,,,,,,,,,
,44649,1.1616058349609375,60,,,,,,,,,
,44699,1.108473300933838,60,,,,,,,,,
,44749,0.9476036429405212,60,,,,,,,,,
,44799,0.9909697771072388,60,,,,,,,,,
,44849,1.2005059719085693,60,,,,,,,,,
,44899,1.0265827178955078,60,,,,,,,,,
,44949,1.2814157009124756,60,,,,,,,,,
,44999,0.9827438592910767,60,,,,,,,,,
,45049,1.1765235662460327,60,,,,,,,,,
,45099,1.2241511344909668,60,,,,,,,,,
,45149,1.2097562551498413,60,,,,,,,,,
,45199,1.1621006727218628,60,,,,,,,,,
,45249,1.090000867843628,60,,,,,,,,,
,45299,1.0209228992462158,60,,,,,,,,,
,45349,1.200467586517334,60,,,,,,,,,
,45383,,60,1.0437579154968262,32.08546447753906,7.68132209777832,7.397085666656494,17.007057189941406,,,,
,45383,,60,,,,,,36.33758544921875,11.905911445617676,5.757341384887695,18.67432975769043
0.0007070724732307769,45384,,,,,,,,,,,
,45399,1.1612308025360107,61,,,,,,,,,
,45449,0.9297811985015869,61,,,,,,,,,
,45499,1.0247821807861328,61,,,,,,,,,
,45549,1.127263069152832,61,,,,,,,,,
,45599,1.0939462184906006,61,,,,,,,,,
,45649,1.2874106168746948,61,,,,,,,,,
,45699,1.244250774383545,61,,,,,,,,,
,45749,1.2375093698501587,61,,,,,,,,,
,45799,1.2349693775177002,61,,,,,,,,,
,45849,1.2244243621826172,61,,,,,,,,,
,45899,1.0045725107192993,61,,,,,,,,,
,45949,0.997505247592926,61,,,,,,,,,
,45999,1.2374030351638794,61,,,,,,,,,
,46049,1.1969441175460815,61,,,,,,,,,
,46099,1.0978035926818848,61,,,,,,,,,
,46127,,61,1.0371638536453247,32.160335540771484,8.973559379577637,6.645591735839844,16.541187286376953,,,,
,46127,,61,,,,,,36.195045471191406,11.782596588134766,5.916615962982178,18.495834350585938
0.0006968160033111347,46128,,,,,,,,,,,
,46149,1.2206097841262817,62,,,,,,,,,
,46199,1.2088651657104492,62,,,,,,,,,
,46249,1.052469253540039,62,,,,,,,,,
,46299,1.298614501953125,62,,,,,,,,,
,46349,0.9935108423233032,62,,,,,,,,,
,46399,1.1544028520584106,62,,,,,,,,,
,46449,1.0396829843521118,62,,,,,,,,,
,46499,1.076684832572937,62,,,,,,,,,
,46549,1.3044079542160034,62,,,,,,,,,
,46599,1.315742015838623,62,,,,,,,,,
,46649,1.0800418853759766,62,,,,,,,,,
,46699,1.2220373153686523,62,,,,,,,,,
,46749,1.0942606925964355,62,,,,,,,,,
,46799,1.1382547616958618,62,,,,,,,,,
,46849,0.972984790802002,62,,,,,,,,,
,46871,,62,1.0288581848144531,31.835891723632812,7.489982604980469,7.35826301574707,16.987646102905273,,,,
,46871,,62,,,,,,35.905418395996094,11.720995903015137,5.797017574310303,18.387405395507812
0.0006864606823717715,46872,,,,,,,,,,,
,46899,1.112768292427063,63,,,,,,,,,
,46949,1.2616431713104248,63,,,,,,,,,
,46999,1.2131237983703613,63,,,,,,,,,
,47049,1.0781729221343994,63,,,,,,,,,
,47099,1.0380191802978516,63,,,,,,,,,
,47149,1.203864336013794,63,,,,,,,,,
,47199,1.2516050338745117,63,,,,,,,,,
,47249,1.0739145278930664,63,,,,,,,,,
,47299,1.0910937786102295,63,,,,,,,,,
,47349,1.135538101196289,63,,,,,,,,,
,47399,1.028929591178894,63,,,,,,,,,
,47449,1.1576602458953857,63,,,,,,,,,
,47499,1.1664104461669922,63,,,,,,,,,
,47549,1.0922558307647705,63,,,,,,,,,
,47599,0.9273576736450195,63,,,,,,,,,
,47615,,63,1.0255831480026245,31.45321273803711,7.297255992889404,7.300029277801514,16.855926513671875,,,,
,47615,,63,,,,,,35.918094635009766,11.614178657531738,5.890754699707031,18.413162231445312
0.0006760117246286306,47616,,,,,,,,,,,
,47649,1.2150840759277344,64,,,,,,,,,
,47699,0.9649214744567871,64,,,,,,,,,
,47749,1.1915051937103271,64,,,,,,,,,
,47799,1.061489462852478,64,,,,,,,,,
,47849,1.0719926357269287,64,,,,,,,,,
,47899,1.1739747524261475,64,,,,,,,,,
,47949,1.4411461353302002,64,,,,,,,,,
,47999,0.9791059494018555,64,,,,,,,,,
,48049,1.1080243587493896,64,,,,,,,,,
,48099,1.2352464199066162,64,,,,,,,,,
,48149,1.2981715202331543,64,,,,,,,,,
,48199,1.1180777549743652,64,,,,,,,,,
,48249,1.1567476987838745,64,,,,,,,,,
,48299,1.1338627338409424,64,,,,,,,,,
,48349,1.0845947265625,64,,,,,,,,,
,48359,,64,1.0214073657989502,31.679214477539062,7.696573734283447,7.362422466278076,16.62021827697754,,,,
,48359,,64,,,,,,35.663665771484375,11.488873481750488,5.832658767700195,18.342134475708008
0.0006654743914466059,48360,,,,,,,,,,,
,48399,1.1341408491134644,65,,,,,,,,,
,48449,1.011081576347351,65,,,,,,,,,
,48499,1.3404262065887451,65,,,,,,,,,
,48549,0.9968357682228088,65,,,,,,,,,
,48599,0.9621241092681885,65,,,,,,,,,
,48649,1.2010728120803833,65,,,,,,,,,
,48699,1.0447137355804443,65,,,,,,,,,
,48749,0.954940676689148,65,,,,,,,,,
,48799,1.2854177951812744,65,,,,,,,,,
,48849,1.0113170146942139,65,,,,,,,,,
,48899,1.1750824451446533,65,,,,,,,,,
,48949,1.139012336730957,65,,,,,,,,,
,48999,1.3283497095108032,65,,,,,,,,,
,49049,1.3917889595031738,65,,,,,,,,,
,49099,1.0684099197387695,65,,,,,,,,,
,49103,,65,1.0068899393081665,31.05666732788086,8.023792266845703,6.7759246826171875,16.25695037841797,,,,
,49103,,65,,,,,,35.616783142089844,11.535749435424805,5.862387657165527,18.218645095825195
0.0006548539886902862,49104,,,,,,,,,,,
,49149,1.1719807386398315,66,,,,,,,,,
,49199,1.1955311298370361,66,,,,,,,,,
,49249,1.0479716062545776,66,,,,,,,,,
,49299,1.016637921333313,66,,,,,,,,,
,49349,1.1029958724975586,66,,,,,,,,,
,49399,1.0578041076660156,66,,,,,,,,,
,49449,1.0017586946487427,66,,,,,,,,,
,49499,1.2976512908935547,66,,,,,,,,,
,49549,1.213373064994812,66,,,,,,,,,
,49599,0.992540180683136,66,,,,,,,,,
,49649,1.150063157081604,66,,,,,,,,,
,49699,1.05078125,66,,,,,,,,,
,49749,0.9845871925354004,66,,,,,,,,,
,49799,1.0810892581939697,66,,,,,,,,,
,49847,,66,1.020851969718933,31.332584381103516,6.694119930267334,7.739555835723877,16.898908615112305,,,,
,49847,,66,,,,,,35.345359802246094,11.364809036254883,5.907766342163086,18.072786331176758
0.0006441558640522925,49848,,,,,,,,,,,
,49849,1.1770275831222534,67,,,,,,,,,
,49899,1.3764104843139648,67,,,,,,,,,
,49949,1.0412739515304565,67,,,,,,,,,
,49999,1.0319585800170898,67,,,,,,,,,
,50049,0.9792554378509521,67,,,,,,,,,
,50099,1.1550862789154053,67,,,,,,,,,
,50149,1.3035699129104614,67,,,,,,,,,
,50199,1.1064856052398682,67,,,,,,,,,
,50249,1.2278742790222168,67,,,,,,,,,
,50299,0.9853225946426392,67,,,,,,,,,
,50349,1.2100181579589844,67,,,,,,,,,
,50399,1.1112806797027588,67,,,,,,,,,
,50449,1.1272623538970947,67,,,,,,,,,
,50499,1.3252815008163452,67,,,,,,,,,
,50549,1.1749720573425293,67,,,,,,,,,
,50591,,67,1.0093412399291992,31.116287231445312,7.105916500091553,7.4567060470581055,16.553665161132812,,,,
,50591,,67,,,,,,35.20209884643555,11.305262565612793,5.891683578491211,18.00515365600586
0.000633385404360554,50592,,,,,,,,,,,
,50599,1.023685336112976,68,,,,,,,,,
,50649,1.0206177234649658,68,,,,,,,,,
,50699,0.9215673804283142,68,,,,,,,,,
,50749,1.0944278240203857,68,,,,,,,,,
,50799,1.1227473020553589,68,,,,,,,,,
,50849,1.0751152038574219,68,,,,,,,,,
,50899,0.839948832988739,68,,,,,,,,,
,50949,1.116487979888916,68,,,,,,,,,
,50999,1.0347189903259277,68,,,,,,,,,
,51049,1.0941236019134521,68,,,,,,,,,
,51099,1.2065629959106445,68,,,,,,,,,
,51149,1.5905768871307373,68,,,,,,,,,
,51199,1.045309066772461,68,,,,,,,,,
,51249,1.4955830574035645,68,,,,,,,,,
,51299,1.1210663318634033,68,,,,,,,,,
,51335,,68,0.9969769716262817,30.962383270263672,8.622769355773926,6.487528324127197,15.852086067199707,,,,
,51335,,68,,,,,,35.008296966552734,11.239355087280273,5.879042625427246,17.88990020751953
0.0006225480328658779,51336,,,,,,,,,,,
,51349,1.2763761281967163,69,,,,,,,,,
,51399,1.0546276569366455,69,,,,,,,,,
,51449,1.1466313600540161,69,,,,,,,,,
,51499,0.8638080954551697,69,,,,,,,,,
,51549,1.1092288494110107,69,,,,,,,,,
,51599,1.0797563791275024,69,,,,,,,,,
,51649,1.1190619468688965,69,,,,,,,,,
,51699,1.0895017385482788,69,,,,,,,,,
,51749,1.1374880075454712,69,,,,,,,,,
,51799,1.1786880493164062,69,,,,,,,,,
,51849,1.128544807434082,69,,,,,,,,,
,51899,1.0617241859436035,69,,,,,,,,,
,51949,1.246565580368042,69,,,,,,,,,
,51999,1.0997309684753418,69,,,,,,,,,
,52049,1.0069966316223145,69,,,,,,,,,
,52079,,69,1.0151846408843994,31.353382110595703,7.376287937164307,7.338851451873779,16.638242721557617,,,,
,52079,,69,,,,,,34.71331024169922,11.126184463500977,5.886172771453857,17.700952529907227
0.0006116492065111788,52080,,,,,,,,,,,
,52099,1.2902497053146362,70,,,,,,,,,
,52149,0.962173581123352,70,,,,,,,,,
,52199,1.0001211166381836,70,,,,,,,,,
,52249,1.1051568984985352,70,,,,,,,,,
,52299,1.0894262790679932,70,,,,,,,,,
,52349,1.1869088411331177,70,,,,,,,,,
,52399,1.2003933191299438,70,,,,,,,,,
,52449,1.0415759086608887,70,,,,,,,,,
,52499,1.1574811935424805,70,,,,,,,,,
,52549,1.0795432329177856,70,,,,,,,,,
,52599,0.9116998314857483,70,,,,,,,,,
,52649,0.927088737487793,70,,,,,,,,,
,52699,1.0241804122924805,70,,,,,,,,,
,52749,0.8961512446403503,70,,,,,,,,,
,52799,1.0727040767669678,70,,,,,,,,,
,52823,,70,0.9985731840133667,31.071918487548828,7.865729331970215,6.913189888000488,16.292999267578125,,,,
,52823,,70,,,,,,35.22979736328125,11.23984146118164,5.91504430770874,18.07491111755371
0.0006006944131837446,52824,,,,,,,,,,,
,52849,1.014296293258667,71,,,,,,,,,
,52899,1.0789477825164795,71,,,,,,,,,
,52949,1.0597577095031738,71,,,,,,,,,
,52999,1.1568495035171509,71,,,,,,,,,
,53049,1.3459086418151855,71,,,,,,,,,
,53099,1.094517707824707,71,,,,,,,,,
,53149,1.1560337543487549,71,,,,,,,,,
,53199,1.1153709888458252,71,,,,,,,,,
,53249,1.1694871187210083,71,,,,,,,,,
,53299,1.1743273735046387,71,,,,,,,,,
,53349,1.0959404706954956,71,,,,,,,,,
,53399,1.0912909507751465,71,,,,,,,,,
,53449,1.1323857307434082,71,,,,,,,,,
,53499,1.1706807613372803,71,,,,,,,,,
,53549,1.0677818059921265,71,,,,,,,,,
,53567,,71,1.0040796995162964,30.794614791870117,6.821679592132568,7.59258508682251,16.38035011291504,,,,
,53567,,71,,,,,,34.74068832397461,11.042088508605957,5.965429306030273,17.733169555664062
0.0005896891689519189,53568,,,,,,,,,,,
,53599,1.0064663887023926,72,,,,,,,,,
,53649,0.9905750155448914,72,,,,,,,,,
,53699,1.0582597255706787,72,,,,,,,,,
,53749,0.9754037857055664,72,,,,,,,,,
,53799,1.253136396408081,72,,,,,,,,,
,53849,0.9350236654281616,72,,,,,,,,,
,53899,0.94003826379776,72,,,,,,,,,
,53949,1.0921434164047241,72,,,,,,,,,
,53999,1.1559622287750244,72,,,,,,,,,
,54049,1.053619623184204,72,,,,,,,,,
,54099,1.143315315246582,72,,,,,,,,,
,54149,1.2884966135025024,72,,,,,,,,,
,54199,1.0922131538391113,72,,,,,,,,,
,54249,0.9588508605957031,72,,,,,,,,,
,54299,1.140803337097168,72,,,,,,,,,
,54311,,72,1.0060323476791382,30.741926193237305,6.737102031707764,7.556535243988037,16.44828987121582,,,,
,54311,,72,,,,,,34.52751922607422,10.708961486816406,6.01675271987915,17.80180549621582
0.0005786390152875952,54312,,,,,,,,,,,
,54349,0.9765264987945557,73,,,,,,,,,
,54399,0.978480875492096,73,,,,,,,,,
,54449,1.008972406387329,73,,,,,,,,,
,54499,1.1089524030685425,73,,,,,,,,,
,54549,1.0238151550292969,73,,,,,,,,,
,54599,0.9092472195625305,73,,,,,,,,,
,54649,1.2381476163864136,73,,,,,,,,,
,54699,1.1160240173339844,73,,,,,,,,,
,54749,1.0592029094696045,73,,,,,,,,,
,54799,1.1280231475830078,73,,,,,,,,,
,54849,0.9909432530403137,73,,,,,,,,,
,54899,1.022770643234253,73,,,,,,,,,
,54949,1.1604804992675781,73,,,,,,,,,
,54999,1.099679708480835,73,,,,,,,,,
,55049,1.0534980297088623,73,,,,,,,,,
,55055,,73,1.0075119733810425,30.96515655517578,7.157217502593994,7.351330280303955,16.45660972595215,,,,
,55055,,73,,,,,,34.38267135620117,10.688669204711914,6.044090270996094,17.649913787841797
0.0005675495162759188,55056,,,,,,,,,,,
,55099,0.9887539744377136,74,,,,,,,,,
,55149,0.9734506607055664,74,,,,,,,,,
,55199,1.0462989807128906,74,,,,,,,,,
,55249,1.0842053890228271,74,,,,,,,,,
,55299,1.2105791568756104,74,,,,,,,,,
,55349,1.1865251064300537,74,,,,,,,,,
,55399,1.0889110565185547,74,,,,,,,,,
,55449,1.0442030429840088,74,,,,,,,,,
,55499,0.9729681015014648,74,,,,,,,,,
,55549,1.3173205852508545,74,,,,,,,,,
,55599,1.0568263530731201,74,,,,,,,,,
,55649,1.1701401472091675,74,,,,,,,,,
,55699,0.883806586265564,74,,,,,,,,,
,55749,1.0086820125579834,74,,,,,,,,,
,55799,0.9602526426315308,74,,,,,,,,,
,55799,,74,0.9922406077384949,30.524242401123047,7.001927375793457,7.248727798461914,16.273588180541992,,,,
,55799,,74,,,,,,34.230926513671875,10.626272201538086,6.129487037658691,17.475168228149414
0.0005564262558136021,55800,,,,,,,,,,,
,55849,1.1669666767120361,75,,,,,,,,,
,55899,1.03668212890625,75,,,,,,,,,
,55949,1.0836135149002075,75,,,,,,,,,
,55999,1.1047608852386475,75,,,,,,,,,
,56049,1.0766334533691406,75,,,,,,,,,
,56099,1.0978971719741821,75,,,,,,,,,
,56149,1.0680532455444336,75,,,,,,,,,
,56199,0.9765381217002869,75,,,,,,,,,
,56249,1.0835760831832886,75,,,,,,,,,
,56299,1.0227566957473755,75,,,,,,,,,
,56349,1.0509312152862549,75,,,,,,,,,
,56399,1.0893712043762207,75,,,,,,,,,
,56449,1.06315016746521,75,,,,,,,,,
,56499,1.06679368019104,75,,,,,,,,,
,56543,,75,0.9931781888008118,31.095489501953125,8.776673316955566,6.432067394256592,15.886749267578125,,,,
,56543,,75,,,,,,34.061668395996094,10.575587272644043,6.028594017028809,17.457487106323242
0.0005452748347972648,56544,,,,,,,,,,,
,56549,1.1759309768676758,76,,,,,,,,,
,56599,1.0861608982086182,76,,,,,,,,,
,56649,0.9406158924102783,76,,,,,,,,,
,56699,1.16629159450531,76,,,,,,,,,
,56749,1.1146771907806396,76,,,,,,,,,
,56799,1.0495591163635254,76,,,,,,,,,
,56849,0.9471837878227234,76,,,,,,,,,
,56899,1.1308820247650146,76,,,,,,,,,
,56949,1.2575743198394775,76,,,,,,,,,
,56999,0.8767402172088623,76,,,,,,,,,
,57049,1.05348539352417,76,,,,,,,,,
,57099,1.1125437021255493,76,,,,,,,,,
,57149,0.9494396448135376,76,,,,,,,,,
,57199,1.224510669708252,76,,,,,,,,,
,57249,1.0862946510314941,76,,,,,,,,,
,57287,,76,0.9855531454086304,30.277442932128906,6.9811296463012695,7.26675271987915,16.029560089111328,,,,
,57287,,76,,,,,,33.94729995727539,10.436920166015625,5.993600368499756,17.516780853271484
0.0005341008683032136,57288,,,,,,,,,,,
,57299,1.0776493549346924,77,,,,,,,,,
,57349,1.05161714553833,77,,,,,,,,,
,57399,1.0935381650924683,77,,,,,,,,,
,57449,1.089133858680725,77,,,,,,,,,
,57499,1.432318925857544,77,,,,,,,,,
,57549,1.0050184726715088,77,,,,,,,,,
,57599,1.0515797138214111,77,,,,,,,,,
,57649,1.174657940864563,77,,,,,,,,,
,57699,1.0893664360046387,77,,,,,,,,,
,57749,0.9009101390838623,77,,,,,,,,,
,57799,0.9077036380767822,77,,,,,,,,,
,57849,1.05259370803833,77,,,,,,,,,
,57899,1.064530372619629,77,,,,,,,,,
,57949,1.2242398262023926,77,,,,,,,,,
,57999,0.9379116296768188,77,,,,,,,,,
,58031,,77,0.9965127110481262,30.876419067382812,7.065707206726074,7.390152931213379,16.42055892944336,,,,
,58031,,77,,,,,,33.778133392333984,10.288270950317383,6.0911335945129395,17.398727416992188
0.0005229099827600821,58032,,,,,,,,,,,
,58049,0.9646908044815063,78,,,,,,,,,
,58099,0.9254670143127441,78,,,,,,,,,
,58149,0.8997453451156616,78,,,,,,,,,
,58199,1.133667230606079,78,,,,,,,,,
,58249,1.0012648105621338,78,,,,,,,,,
,58299,1.091573715209961,78,,,,,,,,,
,58349,1.1259510517120361,78,,,,,,,,,
,58399,1.0245747566223145,78,,,,,,,,,
,58449,1.0762126445770264,78,,,,,,,,,
,58499,1.0092313289642334,78,,,,,,,,,
,58549,0.9134238362312317,78,,,,,,,,,
,58599,1.0483484268188477,78,,,,,,,,,
,58649,1.1366205215454102,78,,,,,,,,,
,58699,1.1929746866226196,78,,,,,,,,,
,58749,1.0948841571807861,78,,,,,,,,,
,58775,,78,0.9761390089988708,30.027868270874023,6.871594429016113,7.394312381744385,15.761961936950684,,,,
,58775,,78,,,,,,33.63846969604492,10.274557113647461,6.096151351928711,17.267759323120117
0.0005117078131157544,58776,,,,,,,,,,,
,58799,1.1092190742492676,79,,,,,,,,,
,58849,0.9983741044998169,79,,,,,,,,,
,58899,1.0680294036865234,79,,,,,,,,,
,58949,0.962348461151123,79,,,,,,,,,
,58999,1.0361692905426025,79,,,,,,,,,
,59049,1.10294508934021,79,,,,,,,,,
,59099,0.9449373483657837,79,,,,,,,,,
,59149,1.3205194473266602,79,,,,,,,,,
,59199,1.0145097970962524,79,,,,,,,,,
,59249,1.1033068895339966,79,,,,,,,,,
,59299,1.1573436260223389,79,,,,,,,,,
,59349,1.0296604633331299,79,,,,,,,,,
,59399,1.4244747161865234,79,,,,,,,,,
,59449,0.9865548014640808,79,,,,,,,,,
,59499,1.0046815872192383,79,,,,,,,,,
,59519,,79,0.9841378331184387,30.400842666625977,7.455319404602051,7.115622043609619,15.829901695251465,,,,
,59519,,79,,,,,,33.325706481933594,10.214847564697266,6.028107166290283,17.082752227783203
0.0005004999999999998,59520,,,,,,,,,,,
,59549,1.0798771381378174,80,,,,,,,,,
,59599,0.9751023054122925,80,,,,,,,,,
,59649,0.8022401332855225,80,,,,,,,,,
,59699,0.9773789644241333,80,,,,,,,,,
,59749,1.2139283418655396,80,,,,,,,,,
,59799,1.0665055513381958,80,,,,,,,,,
,59849,1.131308674812317,80,,,,,,,,,
,59899,0.899824857711792,80,,,,,,,,,
,59949,1.0200557708740234,80,,,,,,,,,
,59999,1.0007458925247192,80,,,,,,,,,
,60049,1.0631885528564453,80,,,,,,,,,
,60099,1.0205010175704956,80,,,,,,,,,
,60149,1.041835904121399,80,,,,,,,,,
,60199,1.119835615158081,80,,,,,,,,,
,60249,1.1427359580993652,80,,,,,,,,,
,60263,,80,0.9760897755622864,30.093034744262695,6.9353742599487305,7.200199604034424,15.9574613571167,,,,
,60263,,80,,,,,,33.538795471191406,10.373445510864258,6.0229268074035645,17.142423629760742
0.0004892921868842453,60264,,,,,,,,,,,
,60299,1.0619773864746094,81,,,,,,,,,
,60349,1.099907636642456,81,,,,,,,,,
,60399,0.9406879544258118,81,,,,,,,,,
,60449,0.854709267616272,81,,,,,,,,,
,60499,1.0179710388183594,81,,,,,,,,,
,60549,1.16237211227417,81,,,,,,,,,
,60599,1.0629158020019531,81,,,,,,,,,
,60649,1.1206159591674805,81,,,,,,,,,
,60699,0.980964720249176,81,,,,,,,,,
,60749,1.0549354553222656,81,,,,,,,,,
,60799,1.109646201133728,81,,,,,,,,,
,60849,0.9539055824279785,81,,,,,,,,,
,60899,1.1329939365386963,81,,,,,,,,,
,60949,1.146181344985962,81,,,,,,,,,
,60999,0.9627416133880615,81,,,,,,,,,
,61007,,81,0.9732441902160645,29.812957763671875,6.710758209228516,7.3610358238220215,15.741164207458496,,,,
,61007,,81,,,,,,33.287567138671875,10.05498218536377,6.116654396057129,17.11593246459961
0.0004780900172399177,61008,,,,,,,,,,,
,61049,0.7770827412605286,82,,,,,,,,,
,61099,0.99628746509552,82,,,,,,,,,
,61149,1.159531831741333,82,,,,,,,,,
,61199,1.1918747425079346,82,,,,,,,,,
,61249,1.1441645622253418,82,,,,,,,,,
,61299,1.0392792224884033,82,,,,,,,,,
,61349,1.047023057937622,82,,,,,,,,,
,61399,1.0971603393554688,82,,,,,,,,,
,61449,0.9851295351982117,82,,,,,,,,,
,61499,1.0304332971572876,82,,,,,,,,,
,61549,0.9293769598007202,82,,,,,,,,,
,61599,1.0570740699768066,82,,,,,,,,,
,61649,1.1555299758911133,82,,,,,,,,,
,61699,1.001880407333374,82,,,,,,,,,
,61749,1.1346977949142456,82,,,,,,,,,
,61751,,82,0.9740485548973083,29.747791290283203,6.400177478790283,7.545443058013916,15.80217170715332,,,,
,61751,,82,,,,,,33.16481399536133,9.993081092834473,6.108867168426514,17.062864303588867
0.0004668991316967861,61752,,,,,,,,,,,
,61799,1.0776774883270264,83,,,,,,,,,
,61849,1.0840349197387695,83,,,,,,,,,
,61899,1.0376365184783936,83,,,,,,,,,
,61949,1.374119520187378,83,,,,,,,,,
,61999,1.146817922592163,83,,,,,,,,,
,62049,1.1766057014465332,83,,,,,,,,,
,62099,1.028375506401062,83,,,,,,,,,
,62149,1.0495883226394653,83,,,,,,,,,
,62199,0.9843777418136597,83,,,,,,,,,
,62249,1.1306705474853516,83,,,,,,,,,
,62299,0.9820767045021057,83,,,,,,,,,
,62349,1.268819808959961,83,,,,,,,,,
,62399,0.8513811230659485,83,,,,,,,,,
,62449,1.0798641443252563,83,,,,,,,,,
,62495,,83,0.9650843143463135,29.904468536376953,7.370741844177246,7.015792369842529,15.517934799194336,,,,
,62495,,83,,,,,,33.23812484741211,9.985283851623535,6.145285606384277,17.107555389404297
0.0004557251652027349,62496,,,,,,,,,,,
,62499,0.9291951656341553,84,,,,,,,,,
,62549,1.0406742095947266,84,,,,,,,,,
,62599,1.0923290252685547,84,,,,,,,,,
,62649,0.8890484571456909,84,,,,,,,,,
,62699,1.1913270950317383,84,,,,,,,,,
,62749,1.1765859127044678,84,,,,,,,,,
,62799,0.9251016974449158,84,,,,,,,,,
,62849,1.0401090383529663,84,,,,,,,,,
,62899,1.1130030155181885,84,,,,,,,,,
,62949,1.0336992740631104,84,,,,,,,,,
,62999,1.1201422214508057,84,,,,,,,,,
,63049,1.0247958898544312,84,,,,,,,,,
,63099,1.0772839784622192,84,,,,,,,,,
,63149,0.9800646305084229,84,,,,,,,,,
,63199,0.8952548503875732,84,,,,,,,,,
,63239,,84,0.9698100090026855,29.743633270263672,6.68996000289917,7.329145908355713,15.724526405334473,,,,
,63239,,84,,,,,,32.6951904296875,9.813907623291016,6.10045051574707,16.780832290649414
0.0004445737441863976,63240,,,,,,,,,,,
,63249,0.9777946472167969,85,,,,,,,,,
,63299,1.0584492683410645,85,,,,,,,,,
,63349,1.0022659301757812,85,,,,,,,,,
,63399,1.0599441528320312,85,,,,,,,,,
,63449,1.0883989334106445,85,,,,,,,,,
,63499,1.0840610265731812,85,,,,,,,,,
,63549,1.2466809749603271,85,,,,,,,,,
,63599,0.9878634810447693,85,,,,,,,,,
,63649,1.0691670179367065,85,,,,,,,,,
,63699,1.074609398841858,85,,,,,,,,,
,63749,0.920024037361145,85,,,,,,,,,
,63799,1.04648756980896,85,,,,,,,,,
,63849,1.143731951713562,85,,,,,,,,,
,63899,0.9139598608016968,85,,,,,,,,,
,63949,0.944818377494812,85,,,,,,,,,
,63983,,85,0.9668533205986023,29.596660614013672,5.838636875152588,7.90732479095459,15.850699424743652,,,,
,63983,,85,,,,,,32.644840240478516,9.757346153259277,6.167789459228516,16.719701766967773
0.000433450483724081,63984,,,,,,,,,,,
,63999,0.9666290879249573,86,,,,,,,,,
,64049,1.0717419385910034,86,,,,,,,,,
,64099,0.9233499765396118,86,,,,,,,,,
,64149,1.2104713916778564,86,,,,,,,,,
,64199,0.968421220779419,86,,,,,,,,,
,64249,1.027735710144043,86,,,,,,,,,
,64299,0.9363330602645874,86,,,,,,,,,
,64349,1.0936355590820312,86,,,,,,,,,
,64399,0.9188074469566345,86,,,,,,,,,
,64449,1.102863073348999,86,,,,,,,,,
,64499,1.0085395574569702,86,,,,,,,,,
,64549,0.9743728637695312,86,,,,,,,,,
,64599,1.0652872323989868,86,,,,,,,,,
,64649,0.9290564656257629,86,,,,,,,,,
,64699,1.0689278841018677,86,,,,,,,,,
,64727,,86,0.961244523525238,29.826824188232422,7.198812961578369,7.06986665725708,15.558143615722656,,,,
,64727,,86,,,,,,32.478111267089844,9.575578689575195,6.216217994689941,16.686315536499023
0.0004223609847124046,64728,,,,,,,,,,,
,64749,1.0172338485717773,87,,,,,,,,,
,64799,1.0854264497756958,87,,,,,,,,,
,64849,1.0075803995132446,87,,,,,,,,,
,64899,0.9257844090461731,87,,,,,,,,,
,64949,0.8834612369537354,87,,,,,,,,,
,64999,1.070183515548706,87,,,,,,,,,
,65049,1.1494057178497314,87,,,,,,,,,
,65099,1.0036909580230713,87,,,,,,,,,
,65149,1.0991898775100708,87,,,,,,,,,
,65199,1.0034977197647095,87,,,,,,,,,
,65249,0.9564063549041748,87,,,,,,,,,
,65299,0.8960953950881958,87,,,,,,,,,
,65349,1.0365848541259766,87,,,,,,,,,
,65399,1.1078708171844482,87,,,,,,,,,
,65449,0.9508302211761475,87,,,,,,,,,
,65471,,87,0.9615722298622131,29.681238174438477,6.983902454376221,7.183561325073242,15.513774871826172,,,,
,65471,,87,,,,,,32.163414001464844,9.533611297607422,6.192965507507324,16.436838150024414
0.0004113108310480809,65472,,,,,,,,,,,
,65499,0.9911230206489563,88,,,,,,,,,
,65549,0.8066195249557495,88,,,,,,,,,
,65599,1.0678367614746094,88,,,,,,,,,
,65649,1.079062819480896,88,,,,,,,,,
,65699,1.0708752870559692,88,,,,,,,,,
,65749,0.9744722843170166,88,,,,,,,,,
,65799,0.9997856020927429,88,,,,,,,,,
,65849,1.000187873840332,88,,,,,,,,,
,65899,0.9857936501502991,88,,,,,,,,,
,65949,1.0557535886764526,88,,,,,,,,,
,65999,0.9474697113037109,88,,,,,,,,,
,66049,1.312572956085205,88,,,,,,,,,
,66099,0.9711918830871582,88,,,,,,,,,
,66149,0.9310659170150757,88,,,,,,,,,
,66199,1.0599571466445923,88,,,,,,,,,
,66215,,88,0.9530302286148071,28.99629783630371,6.405723571777344,7.286163806915283,15.304410934448242,,,,
,66215,,88,,,,,,32.36867141723633,9.657930374145508,6.160097122192383,16.550642013549805
0.00040030558681625514,66216,,,,,,,,,,,
,66249,0.7877575159072876,89,,,,,,,,,
,66299,0.8638260364532471,89,,,,,,,,,
,66349,0.7208251953125,89,,,,,,,,,
,66399,0.8185347318649292,89,,,,,,,,,
,66449,0.9098963141441345,89,,,,,,,,,
,66499,0.9884876608848572,89,,,,,,,,,
,66549,0.990646243095398,89,,,,,,,,,
,66599,1.0836329460144043,89,,,,,,,,,
,66649,1.0799469947814941,89,,,,,,,,,
,66699,1.0842115879058838,89,,,,,,,,,
,66749,0.8849444389343262,89,,,,,,,,,
,66799,0.838369607925415,89,,,,,,,,,
,66849,1.0471665859222412,89,,,,,,,,,
,66899,0.8112558126449585,89,,,,,,,,,
,66949,1.0829012393951416,89,,,,,,,,,
,66959,,89,0.951137900352478,29.101673126220703,6.168628692626953,7.502460956573486,15.430583953857422,,,,
,66959,,89,,,,,,32.10293197631836,9.484986305236816,6.166741371154785,16.451204299926758
0.0003893507934888208,66960,,,,,,,,,,,
,66999,0.9248721599578857,90,,,,,,,,,
,67049,1.2370295524597168,90,,,,,,,,,
,67099,0.9085696935653687,90,,,,,,,,,
,67149,1.1510868072509766,90,,,,,,,,,
,67199,1.2796796560287476,90,,,,,,,,,
,67249,1.1186141967773438,90,,,,,,,,,
,67299,1.0247033834457397,90,,,,,,,,,
,67349,1.0423797369003296,90,,,,,,,,,
,67399,0.8672699928283691,90,,,,,,,,,
,67449,1.0782508850097656,90,,,,,,,,,
,67499,1.1621109247207642,90,,,,,,,,,
,67549,0.8712029457092285,90,,,,,,,,,
,67599,0.7801196575164795,90,,,,,,,,,
,67649,0.8816090822219849,90,,,,,,,,,
,67699,1.0259652137756348,90,,,,,,,,,
,67703,,90,0.9467435479164124,29.058691024780273,6.777310848236084,7.082345485687256,15.199034690856934,,,,
,67703,,90,,,,,,32.117103576660156,9.492595672607422,6.244507789611816,16.380001068115234
0.0003784519671341218,67704,,,,,,,,,,,
,67749,0.9767498970031738,91,,,,,,,,,
,67799,0.9681856632232666,91,,,,,,,,,
,67849,1.0990066528320312,91,,,,,,,,,
,67899,1.0225112438201904,91,,,,,,,,,
,67949,0.9925991296768188,91,,,,,,,,,
,67999,0.974835991859436,91,,,,,,,,,
,68049,1.0160046815872192,91,,,,,,,,,
,68099,0.8908770084381104,91,,,,,,,,,
,68149,1.016182780265808,91,,,,,,,,,
,68199,0.898147463798523,91,,,,,,,,,
,68249,0.8083840608596802,91,,,,,,,,,
,68299,0.9823072552680969,91,,,,,,,,,
,68349,0.9657953381538391,91,,,,,,,,,
,68399,1.380552887916565,91,,,,,,,,,
,68447,,91,0.9580832719802856,29.299945831298828,6.325305461883545,7.4636383056640625,15.511001586914062,,,,
,68447,,91,,,,,,31.651384353637695,9.291951179504395,6.234036445617676,16.125394821166992
0.00036761459563944575,68448,,,,,,,,,,,
,68449,0.9435454607009888,92,,,,,,,,,
,68499,0.9153553247451782,92,,,,,,,,,
,68549,0.9984047412872314,92,,,,,,,,,
,68599,1.108038067817688,92,,,,,,,,,
,68649,1.002598524093628,92,,,,,,,,,
,68699,1.0156387090682983,92,,,,,,,,,
,68749,1.0198390483856201,92,,,,,,,,,
,68799,1.0402216911315918,92,,,,,,,,,
,68849,1.052027940750122,92,,,,,,,,,
,68899,0.8995674252510071,92,,,,,,,,,
,68949,1.0026707649230957,92,,,,,,,,,
,68999,0.8466448187828064,92,,,,,,,,,
,69049,1.0101275444030762,92,,,,,,,,,
,69099,0.9588594436645508,92,,,,,,,,,
,69149,1.0151188373565674,92,,,,,,,,,
,69191,,92,0.9509113430976868,29.111379623413086,6.64143180847168,7.282004356384277,15.187942504882812,,,,
,69191,,92,,,,,,31.612106323242188,9.355240821838379,6.120001316070557,16.136863708496094
0.0003568441359477071,69192,,,,,,,,,,,
,69199,0.9699031114578247,93,,,,,,,,,
,69249,0.886041522026062,93,,,,,,,,,
,69299,0.8884657025337219,93,,,,,,,,,
,69349,1.1921623945236206,93,,,,,,,,,
,69399,0.9577248096466064,93,,,,,,,,,
,69449,0.9087473154067993,93,,,,,,,,,
,69499,0.90421462059021,93,,,,,,,,,
,69549,0.8760546445846558,93,,,,,,,,,
,69599,0.900031328201294,93,,,,,,,,,
,69649,0.8873041868209839,93,,,,,,,,,
,69699,1.0144922733306885,93,,,,,,,,,
,69749,1.1393136978149414,93,,,,,,,,,
,69799,0.878350019454956,93,,,,,,,,,
,69849,0.9498755931854248,93,,,,,,,,,
,69899,0.9011833667755127,93,,,,,,,,,
,69935,,93,0.9514849185943604,29.018482208251953,6.175561428070068,7.424816131591797,15.418105125427246,,,,
,69935,,93,,,,,,31.505807876586914,9.244922637939453,6.178518295288086,16.082366943359375
0.0003461460113097136,69936,,,,,,,,,,,
,69949,0.964796781539917,94,,,,,,,,,
,69999,0.9993596076965332,94,,,,,,,,,
,70049,1.1340821981430054,94,,,,,,,,,
,70099,0.9734557271003723,94,,,,,,,,,
,70149,0.9488914608955383,94,,,,,,,,,
,70199,0.9919942021369934,94,,,,,,,,,
,70249,0.8635995984077454,94,,,,,,,,,
,70299,1.275052785873413,94,,,,,,,,,
,70349,1.0969551801681519,94,,,,,,,,,
,70399,0.8371611833572388,94,,,,,,,,,
,70449,1.0274436473846436,94,,,,,,,,,
,70499,0.9137774109840393,94,,,,,,,,,
,70549,0.9956278800964355,94,,,,,,,,,
,70599,1.0249598026275635,94,,,,,,,,,
,70649,0.9415197372436523,94,,,,,,,,,
,70679,,94,0.9472286105155945,29.143268585205078,6.709371566772461,7.176628589630127,15.257268905639648,,,,
,70679,,94,,,,,,31.677888870239258,9.356802940368652,6.243567943572998,16.077518463134766
0.0003355256085533939,70680,,,,,,,,,,,
,70699,0.9521171450614929,95,,,,,,,,,
,70749,0.9209718704223633,95,,,,,,,,,
,70799,0.8702099323272705,95,,,,,,,,,
,70849,1.0397148132324219,95,,,,,,,,,
,70899,1.0124530792236328,95,,,,,,,,,
,70949,0.9506444334983826,95,,,,,,,,,
,70999,0.8169602155685425,95,,,,,,,,,
,71049,0.759978175163269,95,,,,,,,,,
,71099,0.901613175868988,95,,,,,,,,,
,71149,1.0717660188674927,95,,,,,,,,,
,71199,0.801297664642334,95,,,,,,,,,
,71249,1.0506024360656738,95,,,,,,,,,
,71299,0.9688359498977661,95,,,,,,,,,
,71349,1.0730705261230469,95,,,,,,,,,
,71399,1.1410150527954102,95,,,,,,,,,
,71423,,95,0.9414110779762268,28.992137908935547,6.487528324127197,7.2584333419799805,15.246176719665527,,,,
,71423,,95,,,,,,31.431896209716797,9.10697078704834,6.226283073425293,16.098642349243164
0.0003249882753713692,71424,,,,,,,,,,,
,71449,0.9148168563842773,96,,,,,,,,,
,71499,0.9976544380187988,96,,,,,,,,,
,71549,0.9742856025695801,96,,,,,,,,,
,71599,0.9882861375808716,96,,,,,,,,,
,71649,0.9567244052886963,96,,,,,,,,,
,71699,0.9594195485115051,96,,,,,,,,,
,71749,1.0565978288650513,96,,,,,,,,,
,71799,0.9420077204704285,96,,,,,,,,,
,71849,0.9763282537460327,96,,,,,,,,,
,71899,0.8671413660049438,96,,,,,,,,,
,71949,0.9549171924591064,96,,,,,,,,,
,71999,1.015943169593811,96,,,,,,,,,
