lr-Adam,step,train/loss,epoch,val/loss,test/loss
0.0001,0,,,,
0.0001,49,,,,
,49,0.24685880541801453,0,,
0.0001,99,,,,
,99,0.2621243894100189,0,,
0.0001,149,,,,
,149,0.2605580985546112,0,,
0.0001,199,,,,
,199,0.2520495355129242,0,,
0.0001,249,,,,
,249,0.24723702669143677,0,,
0.0001,299,,,,
,299,0.25170060992240906,0,,
0.0001,349,,,,
,349,0.24472801387310028,0,,
0.0001,399,,,,
,399,0.24855972826480865,0,,
0.0001,449,,,,
,449,0.2514156401157379,0,,
0.0001,499,,,,
,499,0.25712233781814575,0,,
0.0001,549,,,,
,549,0.24892430007457733,0,,
,557,,0,0.20980975031852722,
0.0001,558,,,,
0.0001,599,,,,
,599,0.253935843706131,1,,
0.0001,649,,,,
,649,0.2596961557865143,1,,
0.0001,699,,,,
,699,0.25267165899276733,1,,
0.0001,749,,,,
,749,0.2456539124250412,1,,
0.0001,799,,,,
,799,0.23998746275901794,1,,
0.0001,849,,,,
,849,0.24562104046344757,1,,
0.0001,899,,,,
,899,0.23836013674736023,1,,
0.0001,949,,,,
,949,0.24273236095905304,1,,
0.0001,999,,,,
,999,0.229685977101326,1,,
0.0001,1049,,,,
,1049,0.24540573358535767,1,,
0.0001,1099,,,,
,1099,0.23537564277648926,1,,
,1115,,1,0.20229023694992065,
0.0001,1116,,,,
0.0001,1149,,,,
,1149,0.24202054738998413,2,,
0.0001,1199,,,,
,1199,0.253783643245697,2,,
0.0001,1249,,,,
,1249,0.23379139602184296,2,,
0.0001,1299,,,,
,1299,0.2510761618614197,2,,
0.0001,1349,,,,
,1349,0.247309610247612,2,,
0.0001,1399,,,,
,1399,0.23886089026927948,2,,
0.0001,1449,,,,
,1449,0.23960497975349426,2,,
0.0001,1499,,,,
,1499,0.24085187911987305,2,,
0.0001,1549,,,,
,1549,0.23841552436351776,2,,
0.0001,1599,,,,
,1599,0.24033376574516296,2,,
0.0001,1649,,,,
,1649,0.22734954953193665,2,,
,1673,,2,0.1975635439157486,
0.0001,1674,,,,
0.0001,1699,,,,
,1699,0.24159350991249084,3,,
0.0001,1749,,,,
,1749,0.2395947277545929,3,,
0.0001,1799,,,,
,1799,0.23548461496829987,3,,
0.0001,1849,,,,
,1849,0.22781869769096375,3,,
0.0001,1899,,,,
,1899,0.239729642868042,3,,
0.0001,1949,,,,
,1949,0.22550912201404572,3,,
0.0001,1999,,,,
,1999,0.24603290855884552,3,,
0.0001,2049,,,,
,2049,0.21410799026489258,3,,
0.0001,2099,,,,
,2099,0.23632986843585968,3,,
0.0001,2149,,,,
,2149,0.2289067804813385,3,,
0.0001,2199,,,,
,2199,0.22913837432861328,3,,
,2231,,3,0.19239374995231628,
0.0001,2232,,,,
0.0001,2249,,,,
,2249,0.24287210404872894,4,,
0.0001,2299,,,,
,2299,0.22851310670375824,4,,
0.0001,2349,,,,
,2349,0.2413734644651413,4,,
0.0001,2399,,,,
,2399,0.21912160515785217,4,,
0.0001,2449,,,,
,2449,0.23532365262508392,4,,
0.0001,2499,,,,
,2499,0.22776392102241516,4,,
0.0001,2549,,,,
,2549,0.23112499713897705,4,,
0.0001,2599,,,,
,2599,0.2275070995092392,4,,
0.0001,2649,,,,
,2649,0.23108668625354767,4,,
0.0001,2699,,,,
,2699,0.23419320583343506,4,,
0.0001,2749,,,,
,2749,0.2259320467710495,4,,
,2789,,4,0.18788239359855652,
0.0001,2790,,,,
0.0001,2799,,,,
,2799,0.22489915788173676,5,,
0.0001,2849,,,,
,2849,0.21916820108890533,5,,
0.0001,2899,,,,
,2899,0.23082654178142548,5,,
0.0001,2949,,,,
,2949,0.22433945536613464,5,,
0.0001,2999,,,,
,2999,0.22850285470485687,5,,
0.0001,3049,,,,
,3049,0.22210755944252014,5,,
0.0001,3099,,,,
,3099,0.21799412369728088,5,,
0.0001,3149,,,,
,3149,0.2200959026813507,5,,
0.0001,3199,,,,
,3199,0.22015050053596497,5,,
0.0001,3249,,,,
,3249,0.21945728361606598,5,,
0.0001,3299,,,,
,3299,0.220749169588089,5,,
,3347,,5,0.18417230248451233,
0.0001,3348,,,,
0.0001,3349,,,,
,3349,0.22126391530036926,6,,
0.0001,3399,,,,
,3399,0.2205761820077896,6,,
0.0001,3449,,,,
,3449,0.22388601303100586,6,,
0.0001,3499,,,,
,3499,0.2203429639339447,6,,
0.0001,3549,,,,
,3549,0.2216508835554123,6,,
0.0001,3599,,,,
,3599,0.2195611596107483,6,,
0.0001,3649,,,,
,3649,0.2182045578956604,6,,
0.0001,3699,,,,
,3699,0.2246265858411789,6,,
0.0001,3749,,,,
,3749,0.2258048951625824,6,,
0.0001,3799,,,,
,3799,0.21248726546764374,6,,
0.0001,3849,,,,
,3849,0.21482127904891968,6,,
0.0001,3899,,,,
,3899,0.21669283509254456,6,,
,3905,,6,0.17843812704086304,
0.0001,3906,,,,
0.0001,3949,,,,
,3949,0.21920306980609894,7,,
0.0001,3999,,,,
,3999,0.21408787369728088,7,,
0.0001,4049,,,,
,4049,0.22344692051410675,7,,
0.0001,4099,,,,
,4099,0.21164093911647797,7,,
0.0001,4149,,,,
,4149,0.22195442020893097,7,,
0.0001,4199,,,,
,4199,0.21906766295433044,7,,
0.0001,4249,,,,
,4249,0.2113131582736969,7,,
0.0001,4299,,,,
,4299,0.21749962866306305,7,,
0.0001,4349,,,,
,4349,0.21222810447216034,7,,
0.0001,4399,,,,
,4399,0.21841929852962494,7,,
0.0001,4449,,,,
,4449,0.2077345997095108,7,,
,4463,,7,0.1748378723859787,
0.0001,4464,,,,
0.0001,4499,,,,
,4499,0.22076170146465302,8,,
0.0001,4549,,,,
,4549,0.20707564055919647,8,,
0.0001,4599,,,,
,4599,0.22728417813777924,8,,
0.0001,4649,,,,
,4649,0.21319590508937836,8,,
0.0001,4699,,,,
,4699,0.21894976496696472,8,,
0.0001,4749,,,,
,4749,0.21353143453598022,8,,
0.0001,4799,,,,
,4799,0.2070411741733551,8,,
0.0001,4849,,,,
,4849,0.2147950828075409,8,,
0.0001,4899,,,,
,4899,0.21472296118736267,8,,
0.0001,4949,,,,
,4949,0.2090933471918106,8,,
0.0001,4999,,,,
,4999,0.2039094716310501,8,,
,5021,,8,0.17116157710552216,
0.0001,5022,,,,
0.0001,5049,,,,
,5049,0.20153293013572693,9,,
0.0001,5099,,,,
,5099,0.21297109127044678,9,,
0.0001,5149,,,,
,5149,0.20985808968544006,9,,
0.0001,5199,,,,
,5199,0.2061920315027237,9,,
0.0001,5249,,,,
,5249,0.20722149312496185,9,,
0.0001,5299,,,,
,5299,0.20178356766700745,9,,
0.0001,5349,,,,
,5349,0.21066373586654663,9,,
0.0001,5399,,,,
,5399,0.20781323313713074,9,,
0.0001,5449,,,,
,5449,0.20777162909507751,9,,
0.0001,5499,,,,
,5499,0.20133818686008453,9,,
0.0001,5549,,,,
,5549,0.2021503746509552,9,,
,5579,,9,0.16773471236228943,
0.0001,5580,,,,
0.0001,5599,,,,
,5599,0.20316672325134277,10,,
0.0001,5649,,,,
,5649,0.20430238544940948,10,,
0.0001,5699,,,,
,5699,0.2068750560283661,10,,
0.0001,5749,,,,
,5749,0.20648586750030518,10,,
0.0001,5799,,,,
,5799,0.20774848759174347,10,,
0.0001,5849,,,,
,5849,0.20246019959449768,10,,
0.0001,5899,,,,
,5899,0.21254616975784302,10,,
0.0001,5949,,,,
,5949,0.21010738611221313,10,,
0.0001,5999,,,,
,5999,0.19546304643154144,10,,
0.0001,6049,,,,
,6049,0.2025555521249771,10,,
0.0001,6099,,,,
,6099,0.2084125429391861,10,,
,6137,,10,0.16489188373088837,
0.0001,6138,,,,
0.0001,6149,,,,
,6149,0.20230352878570557,11,,
0.0001,6199,,,,
,6199,0.20612765848636627,11,,
0.0001,6249,,,,
,6249,0.198963925242424,11,,
0.0001,6299,,,,
,6299,0.1986171305179596,11,,
0.0001,6349,,,,
,6349,0.20317494869232178,11,,
0.0001,6399,,,,
,6399,0.20912474393844604,11,,
0.0001,6449,,,,
,6449,0.2050623893737793,11,,
0.0001,6499,,,,
,6499,0.20866744220256805,11,,
0.0001,6549,,,,
,6549,0.21075370907783508,11,,
0.0001,6599,,,,
,6599,0.1985139101743698,11,,
0.0001,6649,,,,
,6649,0.198311910033226,11,,
,6695,,11,0.16221702098846436,
0.0001,6696,,,,
0.0001,6699,,,,
,6699,0.2121707797050476,12,,
0.0001,6749,,,,
,6749,0.20114438235759735,12,,
0.0001,6799,,,,
,6799,0.20310446619987488,12,,
0.0001,6849,,,,
,6849,0.19792617857456207,12,,
0.0001,6899,,,,
,6899,0.19917841255664825,12,,
0.0001,6949,,,,
,6949,0.19570952653884888,12,,
0.0001,6999,,,,
,6999,0.20861183106899261,12,,
0.0001,7049,,,,
,7049,0.2003600150346756,12,,
0.0001,7099,,,,
,7099,0.1956672966480255,12,,
0.0001,7149,,,,
,7149,0.202808678150177,12,,
0.0001,7199,,,,
,7199,0.20032677054405212,12,,
0.0001,7249,,,,
,7249,0.19654159247875214,12,,
,7253,,12,0.1598416417837143,
0.0001,7254,,,,
0.0001,7299,,,,
,7299,0.19122278690338135,13,,
0.0001,7349,,,,
,7349,0.2006930559873581,13,,
0.0001,7399,,,,
,7399,0.19190506637096405,13,,
0.0001,7449,,,,
,7449,0.19708724319934845,13,,
0.0001,7499,,,,
,7499,0.20956115424633026,13,,
0.0001,7549,,,,
,7549,0.19692933559417725,13,,
0.0001,7599,,,,
,7599,0.1955479085445404,13,,
0.0001,7649,,,,
,7649,0.20177441835403442,13,,
0.0001,7699,,,,
,7699,0.18751247227191925,13,,
0.0001,7749,,,,
,7749,0.1996109038591385,13,,
0.0001,7799,,,,
,7799,0.20118486881256104,13,,
,7811,,13,0.15743990242481232,
0.0001,7812,,,,
0.0001,7849,,,,
,7849,0.19753514230251312,14,,
0.0001,7899,,,,
,7899,0.20203793048858643,14,,
0.0001,7949,,,,
,7949,0.20021408796310425,14,,
0.0001,7999,,,,
,7999,0.19586050510406494,14,,
0.0001,8049,,,,
,8049,0.1872258484363556,14,,
0.0001,8099,,,,
,8099,0.19705334305763245,14,,
0.0001,8149,,,,
,8149,0.18895208835601807,14,,
0.0001,8199,,,,
,8199,0.1877768635749817,14,,
0.0001,8249,,,,
,8249,0.1929180771112442,14,,
0.0001,8299,,,,
,8299,0.18820452690124512,14,,
0.0001,8349,,,,
,8349,0.19253325462341309,14,,
,8369,,14,0.1553252637386322,
0.0001,8370,,,,
0.0001,8399,,,,
,8399,0.19965966045856476,15,,
0.0001,8449,,,,
,8449,0.20557920634746552,15,,
0.0001,8499,,,,
,8499,0.19767728447914124,15,,
0.0001,8549,,,,
,8549,0.19269970059394836,15,,
0.0001,8599,,,,
,8599,0.19564659893512726,15,,
0.0001,8649,,,,
,8649,0.18836306035518646,15,,
0.0001,8699,,,,
,8699,0.20743946731090546,15,,
0.0001,8749,,,,
,8749,0.18500038981437683,15,,
0.0001,8799,,,,
,8799,0.19394947588443756,15,,
0.0001,8849,,,,
,8849,0.2025955468416214,15,,
0.0001,8899,,,,
,8899,0.19291988015174866,15,,
,8927,,15,0.1546916514635086,
0.0001,8928,,,,
0.0001,8949,,,,
,8949,0.19338800013065338,16,,
0.0001,8999,,,,
,8999,0.19173139333724976,16,,
0.0001,9049,,,,
,9049,0.19985754787921906,16,,
0.0001,9099,,,,
,9099,0.1977439820766449,16,,
0.0001,9149,,,,
,9149,0.1916501820087433,16,,
0.0001,9199,,,,
,9199,0.19544392824172974,16,,
0.0001,9249,,,,
,9249,0.18893963098526,16,,
0.0001,9299,,,,
,9299,0.18967321515083313,16,,
0.0001,9349,,,,
,9349,0.19299618899822235,16,,
0.0001,9399,,,,
,9399,0.19397130608558655,16,,
0.0001,9449,,,,
,9449,0.19254200160503387,16,,
,9485,,16,0.1526254415512085,
0.0001,9486,,,,
0.0001,9499,,,,
,9499,0.1887095421552658,17,,
0.0001,9549,,,,
,9549,0.18639621138572693,17,,
0.0001,9599,,,,
,9599,0.1911592334508896,17,,
0.0001,9649,,,,
,9649,0.19071082770824432,17,,
0.0001,9699,,,,
,9699,0.18723849952220917,17,,
0.0001,9749,,,,
,9749,0.19705843925476074,17,,
0.0001,9799,,,,
,9799,0.19105295836925507,17,,
0.0001,9849,,,,
,9849,0.19545544683933258,17,,
0.0001,9899,,,,
,9899,0.18691621720790863,17,,
0.0001,9949,,,,
,9949,0.1868710070848465,17,,
0.0001,9999,,,,
,9999,0.17790569365024567,17,,
,10043,,17,0.15077023208141327,
0.0001,10044,,,,
0.0001,10049,,,,
,10049,0.1878993660211563,18,,
0.0001,10099,,,,
,10099,0.18939413130283356,18,,
0.0001,10149,,,,
,10149,0.18350860476493835,18,,
0.0001,10199,,,,
,10199,0.1935785859823227,18,,
0.0001,10249,,,,
,10249,0.17995959520339966,18,,
0.0001,10299,,,,
,10299,0.1948380172252655,18,,
0.0001,10349,,,,
,10349,0.18772543966770172,18,,
0.0001,10399,,,,
,10399,0.17834465205669403,18,,
0.0001,10449,,,,
,10449,0.18741393089294434,18,,
0.0001,10499,,,,
,10499,0.17945390939712524,18,,
0.0001,10549,,,,
,10549,0.19110609591007233,18,,
0.0001,10599,,,,
,10599,0.19411371648311615,18,,
,10601,,18,0.14912709593772888,
0.0001,10602,,,,
0.0001,10649,,,,
,10649,0.1834300011396408,19,,
0.0001,10699,,,,
,10699,0.19400952756404877,19,,
0.0001,10749,,,,
,10749,0.18919578194618225,19,,
0.0001,10799,,,,
,10799,0.1842401772737503,19,,
0.0001,10849,,,,
,10849,0.1960885226726532,19,,
0.0001,10899,,,,
,10899,0.19665013253688812,19,,
0.0001,10949,,,,
,10949,0.1955612748861313,19,,
0.0001,10999,,,,
,10999,0.181298166513443,19,,
0.0001,11049,,,,
,11049,0.18546611070632935,19,,
0.0001,11099,,,,
,11099,0.17901113629341125,19,,
0.0001,11149,,,,
,11149,0.18499018251895905,19,,
,11159,,19,0.14782142639160156,
0.0001,11160,,,,
0.0001,11199,,,,
,11199,0.188710018992424,20,,
0.0001,11249,,,,
,11249,0.18773628771305084,20,,
0.0001,11299,,,,
,11299,0.18454308807849884,20,,
0.0001,11349,,,,
,11349,0.18135744333267212,20,,
0.0001,11399,,,,
,11399,0.18653255701065063,20,,
0.0001,11449,,,,
,11449,0.18803513050079346,20,,
0.0001,11499,,,,
,11499,0.1834717094898224,20,,
0.0001,11549,,,,
,11549,0.19459743797779083,20,,
0.0001,11599,,,,
,11599,0.18574033677577972,20,,
0.0001,11649,,,,
,11649,0.19310951232910156,20,,
0.0001,11699,,,,
,11699,0.17761904001235962,20,,
,11717,,20,0.14674372971057892,
0.0001,11718,,,,
0.0001,11749,,,,
,11749,0.18655939400196075,21,,
0.0001,11799,,,,
,11799,0.19419512152671814,21,,
0.0001,11849,,,,
,11849,0.18234245479106903,21,,
0.0001,11899,,,,
,11899,0.18615849316120148,21,,
0.0001,11949,,,,
,11949,0.18015334010124207,21,,
0.0001,11999,,,,
,11999,0.1855151355266571,21,,
0.0001,12049,,,,
,12049,0.18381822109222412,21,,
0.0001,12099,,,,
,12099,0.19321760535240173,21,,
0.0001,12149,,,,
,12149,0.18941724300384521,21,,
0.0001,12199,,,,
,12199,0.19513633847236633,21,,
0.0001,12249,,,,
,12249,0.19352027773857117,21,,
,12275,,21,0.14530682563781738,
0.0001,12276,,,,
0.0001,12299,,,,
,12299,0.18950709700584412,22,,
0.0001,12349,,,,
,12349,0.180331751704216,22,,
0.0001,12399,,,,
,12399,0.17666716873645782,22,,
0.0001,12449,,,,
,12449,0.17358814179897308,22,,
0.0001,12499,,,,
,12499,0.18607807159423828,22,,
0.0001,12549,,,,
,12549,0.1809728443622589,22,,
0.0001,12599,,,,
,12599,0.1838153898715973,22,,
0.0001,12649,,,,
,12649,0.18078845739364624,22,,
0.0001,12699,,,,
,12699,0.188229501247406,22,,
0.0001,12749,,,,
,12749,0.18199071288108826,22,,
0.0001,12799,,,,
,12799,0.18708711862564087,22,,
,12833,,22,0.14454330503940582,
0.0001,12834,,,,
0.0001,12849,,,,
,12849,0.17913517355918884,23,,
0.0001,12899,,,,
,12899,0.18299074470996857,23,,
0.0001,12949,,,,
,12949,0.1898360699415207,23,,
0.0001,12999,,,,
,12999,0.18905587494373322,23,,
0.0001,13049,,,,
,13049,0.18036648631095886,23,,
0.0001,13099,,,,
,13099,0.17594170570373535,23,,
0.0001,13149,,,,
,13149,0.18646128475666046,23,,
0.0001,13199,,,,
,13199,0.1944642961025238,23,,
0.0001,13249,,,,
,13249,0.18283477425575256,23,,
0.0001,13299,,,,
,13299,0.1788373738527298,23,,
0.0001,13349,,,,
,13349,0.18358920514583588,23,,
,13391,,23,0.14396563172340393,
0.0001,13392,,,,
0.0001,13399,,,,
,13399,0.18157479166984558,24,,
0.0001,13449,,,,
,13449,0.17162105441093445,24,,
0.0001,13499,,,,
,13499,0.18801581859588623,24,,
0.0001,13549,,,,
,13549,0.18431535363197327,24,,
0.0001,13599,,,,
,13599,0.18347445130348206,24,,
0.0001,13649,,,,
,13649,0.18552495539188385,24,,
0.0001,13699,,,,
,13699,0.17575950920581818,24,,
0.0001,13749,,,,
,13749,0.18528185784816742,24,,
0.0001,13799,,,,
,13799,0.18159113824367523,24,,
0.0001,13849,,,,
,13849,0.17116795480251312,24,,
0.0001,13899,,,,
,13899,0.18125306069850922,24,,
0.0001,13949,,,,
,13949,0.17526181042194366,24,,
,13949,,24,0.1423887461423874,
0.0001,13950,,,,
0.0001,13999,,,,
,13999,0.18078213930130005,25,,
0.0001,14049,,,,
,14049,0.17946988344192505,25,,
0.0001,14099,,,,
,14099,0.17982041835784912,25,,
0.0001,14149,,,,
,14149,0.1761397272348404,25,,
0.0001,14199,,,,
,14199,0.17911691963672638,25,,
0.0001,14249,,,,
,14249,0.18355002999305725,25,,
0.0001,14299,,,,
,14299,0.18826524913311005,25,,
0.0001,14349,,,,
,14349,0.18039406836032867,25,,
0.0001,14399,,,,
,14399,0.1894148588180542,25,,
0.0001,14449,,,,
,14449,0.1818288415670395,25,,
0.0001,14499,,,,
,14499,0.19108617305755615,25,,
,14507,,25,0.14165638387203217,
0.0001,14508,,,,
0.0001,14549,,,,
,14549,0.1779990792274475,26,,
0.0001,14599,,,,
,14599,0.1814514696598053,26,,
0.0001,14649,,,,
,14649,0.17247088253498077,26,,
0.0001,14699,,,,
,14699,0.18305501341819763,26,,
0.0001,14749,,,,
,14749,0.1827414333820343,26,,
0.0001,14799,,,,
,14799,0.18641433119773865,26,,
0.0001,14849,,,,
,14849,0.17864763736724854,26,,
0.0001,14899,,,,
,14899,0.18106025457382202,26,,
0.0001,14949,,,,
,14949,0.1725417971611023,26,,
0.0001,14999,,,,
,14999,0.1956690549850464,26,,
0.0001,15049,,,,
,15049,0.17755372822284698,26,,
,15065,,26,0.14123429358005524,
0.0001,15066,,,,
0.0001,15099,,,,
,15099,0.17439725995063782,27,,
0.0001,15149,,,,
,15149,0.17789271473884583,27,,
0.0001,15199,,,,
,15199,0.18556779623031616,27,,
0.0001,15249,,,,
,15249,0.18773004412651062,27,,
0.0001,15299,,,,
,15299,0.173665851354599,27,,
0.0001,15349,,,,
,15349,0.18736883997917175,27,,
0.0001,15399,,,,
,15399,0.1734321266412735,27,,
0.0001,15449,,,,
,15449,0.1792701780796051,27,,
0.0001,15499,,,,
,15499,0.17793673276901245,27,,
0.0001,15549,,,,
,15549,0.17665448784828186,27,,
0.0001,15599,,,,
,15599,0.17542573809623718,27,,
,15623,,27,0.1408175230026245,
0.0001,15624,,,,
0.0001,15649,,,,
,15649,0.17538008093833923,28,,
0.0001,15699,,,,
,15699,0.1747163087129593,28,,
0.0001,15749,,,,
,15749,0.17863593995571136,28,,
0.0001,15799,,,,
,15799,0.18100512027740479,28,,
0.0001,15849,,,,
,15849,0.1726667433977127,28,,
0.0001,15899,,,,
,15899,0.17814600467681885,28,,
0.0001,15949,,,,
,15949,0.18046917021274567,28,,
0.0001,15999,,,,
,15999,0.18143433332443237,28,,
0.0001,16049,,,,
,16049,0.17542368173599243,28,,
0.0001,16099,,,,
,16099,0.17580264806747437,28,,
0.0001,16149,,,,
,16149,0.1669158935546875,28,,
,16181,,28,0.14031678438186646,
,16182,,29,0.14031678438186646,
,16182,,29,,0.13959895074367523
